VAMAS Surface Chemical Analysis Standard Data Transfer Format 1988 May 4
Not specified
MI-600-BE9240AA
XPSUser
KTH Amireza_C-paper-Mxene-sample sent on 17 April2023.experiment
0
NORM
REGULAR
1
4
Index
d
PositionX [mm]
n
PositionY [mm]
n
PositionZ [mm]
n
0
0
0
0
10
wide
HT CP 19 Ap
2023
5
9
14
42
36
2
39
Creation
Created by : XPSUser
Date created : 09/05/2023 14:42
Computer : DESKTOP-U3MGE2F
Location
Location ID : C1
Sample : HT CP 19 Ap
Description : (47.619,16.070,-0.852)mm
Tilt : 0.00
Charge Neutraliser : On
Filament Current : 0.53A
Filament Bias : 2.02V
Charge Balance : 5.02V
Settings
Excitation
Mode : XPS - monochromatic
Tuning : Spectroscopy
Emission current : 15.00mA
Anode library : Al
ESCA modes
Collimation : Slot
Lens : Hybrid
Resolution : 160.00
Scan
Deflection : (0.000, 0.000)mm
wide : 286.690-1491.690eV, Sweeps 5
Start : 286.690eV
End : 1491.690eV
Centre : 889.190eV
Width : 1205.000eV
Step size : 1.000eV
Number Steps : 1205
Dwell time : 100ms
Sweep time : 120s
Sweeps : 5
Instrument Conditions
Work function : -4.50
Acquisition Conditions
X-ray Power : 225.00W
XPS
1
47.6185
16.0701171875
-0.852359375
Al (mono)
1486.69
225
1E+37
1E+37
1E+37
1E+37
FAT
160
1E+37
-4.5
1E+37
1E+37
1E+37
1E+37
1E+37
wide

-1
Kinetic energy
eV
286.69
1
2
Intensity
d
Transmission
d
pulse counting
0.0995024875621891
5
0
1E+37
1E+37
1E+37
0
2412
1
240862
31.1899525550317
34.3842158080476
22946
31.3831160809299
23092
31.3957804233785
22746
31.4084447658271
22631
31.4211091082757
23028
31.4337734507243
23059
31.4464377931729
22881
31.4591021356215
22804
31.4717664780701
22980
31.4844308205187
23116
31.4970951629673
23163
31.5097595054159
22932
31.5224238478645
22924
31.5350881903131
23238
31.5477525327617
23198
31.5604168752103
23146
31.5730812176589
23184
31.5857455601075
23118
31.5984099025561
23275
31.6110742450047
23227
31.6237385874533
23014
31.6364029299019
23309
31.6490672723505
23343
31.6617316147991
23116
31.6743959572477
23576
31.6831677063262
23459
31.6901906091079
23516
31.6972135118896
23444
31.7042364146713
23630
31.711259317453
23638
31.7182822202348
23669
31.7253051230165
23406
31.7323280257982
23656
31.7393509285799
23759
31.7463738313616
23675
31.7533967341433
23638
31.760419636925
23922
31.7674425397068
23948
31.7744654424885
24007
31.7814883452702
23754
31.7885112480519
23732
31.7955341508336
23872
31.8025570536153
23969
31.809579956397
24072
31.8166028591787
23989
31.8236257619605
24007
31.8306486647422
23934
31.8376715675239
23920
31.8446944703056
23745
31.8517173730873
23841
31.858740275869
23898
31.8657631786507
23903
31.8727860814324
23730
31.8798089842142
24042
31.8868318869959
24024
31.8938547897776
24064
31.9008776925593
24096
31.907900595341
24433
31.9149234981227
24134
31.9219464009044
24181
31.9289693036862
24161
31.9359922064679
24123
31.9430151092496
24086
31.9500380120313
24403
31.957060914813
24136
31.9640838175947
24351
31.9711067203764
24290
31.9781296231581
24216
31.9851525259399
24573
31.9921754287216
24867
31.9991983315033
24642
32.006221234285
24590
32.0132441370667
24377
32.0202670398484
24600
32.0272899426301
24580
32.032304243533
24408
32.0364161290989
24661
32.0405280146649
24737
32.0446399002308
24845
32.0487517857968
24813
32.0528636713627
25048
32.0569755569286
24894
32.0610874424946
25054
32.0651993280605
24990
32.0693112136265
25053
32.0734230991924
24838
32.0775349847584
24969
32.0816468703243
24895
32.0857587558902
25072
32.0898706414562
25330
32.0939825270221
25425
32.0980944125881
25215
32.102206298154
25290
32.10631818372
25405
32.1104300692859
25377
32.1145419548519
25589
32.1186538404178
25264
32.1227657259837
25312
32.1268776115497
25423
32.1309894971156
25526
32.1351013826816
25432
32.1392132682475
25682
32.1433251538135
25591
32.1474370393794
25544
32.1515489249454
25853
32.1556608105113
25703
32.1597726960772
25757
32.1638845816432
25768
32.1679964672091
25754
32.1721083527751
25795
32.176220238341
25700
32.180332123907
25654
32.1844440094729
25663
32.1885558950389
25829
32.1926677806048
25913
32.1967796661707
25896
32.2008915517367
25969
32.2050034373026
25957
32.2091153228686
25974
32.2132272084345
26219
32.2173390940005
26299
32.2214509795664
26206
32.2255628651324
26190
32.2296747506983
26237
32.2337866362642
26356
32.2385797052662
26191
32.2436788132032
26258
32.2487779211402
26414
32.2538770290771
26561
32.2589761370141
26656
32.2640752449511
26625
32.2691743528881
26576
32.274273460825
26523
32.279372568762
26853
32.284471676699
26874
32.289570784636
27048
32.2946698925729
26817
32.2997690005099
26900
32.3048681084469
26772
32.3099672163839
26859
32.3150663243208
26817
32.3201654322578
26723
32.3252645401948
26992
32.3303636481318
26825
32.3354627560687
26977
32.3405618640057
27042
32.3456609719427
27300
32.3507600798797
27195
32.3558591878166
27441
32.3609582957536
27291
32.3660574036906
27330
32.3711565116276
27390
32.3762556195646
27404
32.3813547275015
27623
32.3864538354385
27412
32.3915529433755
27273
32.3966520513125
27389
32.4017511592494
27146
32.4068502671864
27312
32.4119493751234
27355
32.4170484830604
27632
32.4221475909973
27666
32.4272466989343
27819
32.4323458068713
27839
32.4374449148083
27731
32.4425440227452
27805
32.4476431306822
28014
32.4527422386192
28160
32.4578413465562
28051
32.4629404544931
28079
32.4680395624301
28299
32.4731386703671
28321
32.4782377783041
28052
32.483336886241
27959
32.488435994178
28200
32.494755001628
28216
32.5016220798738
28264
32.5084891581195
28477
32.5153562363652
28624
32.522223314611
28528
32.5290903928567
28801
32.5359574711024
28988
32.5428245493482
29026
32.5496916275939
29077
32.5565587058396
28817
32.5634257840853
28796
32.5702928623311
28969
32.5771599405768
29032
32.5840270188225
29111
32.5908940970683
29210
32.597761175314
29299
32.6046282535597
29385
32.6114953318055
29536
32.6183624100512
29632
32.6252294882969
29734
32.6320965665427
29626
32.6389636447884
29631
32.6458307230341
30010
32.6526978012798
30019
32.6595648795256
30348
32.6664319577713
30759
32.673299036017
30668
32.6801661142628
30787
32.6870331925085
30882
32.6939002707542
31101
32.700767349
30632
32.7076344272457
30655
32.7145015054914
30587
32.7213685837372
30373
32.7282356619829
30492
32.7351027402286
30421
32.7419698184744
30273
32.7488368967201
30406
32.7557039749658
30307
32.7625710532116
30729
32.7694381314573
30712
32.776305209703
30747
32.7831722879487
31048
32.7900393661945
31342
32.7969064444402
31606
32.8037735226859
31995
32.8106406009317
32744
32.8175076791774
33297
32.8243747574231
33217
32.8312418356689
33828
32.8365010348683
33755
32.8410378536267
33332
32.8455746723852
33643
32.8501114911436
33433
32.854648309902
33031
32.8591851286604
32417
32.8637219474188
31926
32.8682587661772
31461
32.8727955849356
30841
32.877332403694
30408
32.8818692224524
29937
32.8864060412108
29041
32.8909428599692
28819
32.8954796787276
28911
32.900016497486
28873
32.9045533162444
28712
32.9090901350029
28596
32.9136269537613
28602
32.9181637725197
28932
32.9227005912781
28588
32.9272374100365
28625
32.9317742287949
28674
32.9363110475533
28527
32.9408478663117
28458
32.9453846850701
28660
32.9499215038285
28843
32.9544583225869
28992
32.9589951413453
28863
32.9635319601037
28660
32.9680687788622
28553
32.9726055976206
28711
32.977142416379
28891
32.9816792351374
28657
32.9862160538958
28813
32.9907528726542
28928
32.9952896914126
29046
32.999826510171
28948
33.0043633289294
28932
33.0089001476878
28686
33.0134369664462
29076
33.0179737852046
29168
33.022510603963
28813
33.0270474227215
28937
33.0315842414799
29202
33.0361210602383
29140
33.0406578789967
29107
33.0451946977551
29094
33.0497315165135
29098
33.0542683352719
29145
33.0588051540303
29269
33.0651513369735
29141
33.0723104226664
29399
33.0794695083592
29165
33.0866285940521
29180
33.093787679745
29337
33.1009467654379
29126
33.1081058511307
29454
33.1152649368236
29669
33.1224240225165
29646
33.1295831082094
29361
33.1367421939023
29384
33.1439012795951
29271
33.151060365288
29564
33.1582194509809
29558
33.1653785366737
29678
33.1725376223666
29779
33.1796967080595
29826
33.1868557937524
29488
33.1940148794453
29619
33.2011739651381
29613
33.208333050831
29900
33.2154921365239
29658
33.2226512222168
29755
33.2298103079096
29889
33.2369693936025
29852
33.2441284792954
29947
33.2512875649883
29972
33.2584466506811
29796
33.265605736374
29929
33.2727648220669
29884
33.2799239077598
29898
33.2870829934526
30196
33.2942420791455
30140
33.3014011648384
30103
33.3085602505313
30148
33.3157193362241
30198
33.322878421917
30121
33.3300375076099
30056
33.3371965933028
30144
33.3443556789956
30189
33.3515147646885
30283
33.3586738503814
30310
33.3658329360743
30414
33.3729920217671
30363
33.38015110746
30269
33.3873101931529
30289
33.3944692788458
30059
33.4016283645386
30069
33.4087874502315
30392
33.4159465359244
30368
33.4215617399715
30195
33.4264833160328
30606
33.4314048920942
30604
33.4363264681555
30382
33.4412480442168
30608
33.4461696202781
30744
33.4510911963395
30479
33.4560127724008
30468
33.4609343484621
30555
33.4658559245234
30474
33.4707775005848
30810
33.4756990766461
30827
33.4806206527074
30508
33.4855422287687
30611
33.4904638048301
30697
33.4953853808914
30842
33.5003069569527
30939
33.505228533014
30732
33.5101501090754
30727
33.5150716851367
31005
33.519993261198
30776
33.5249148372594
31017
33.5298364133207
30884
33.534757989382
31140
33.5396795654433
31353
33.5446011415047
31069
33.549522717566
31189
33.5544442936273
30672
33.5593658696886
30863
33.56428744575
31188
33.5692090218113
31222
33.5741305978726
31144
33.5790521739339
31250
33.5839737499953
31139
33.5888953260566
31301
33.5938169021179
31332
33.5987384781792
31193
33.6036600542406
31059
33.6085816303019
31167
33.6135032063632
31224
33.6184247824245
31577
33.6233463584859
31559
33.6282679345472
31615
33.6331895106085
31540
33.6381110866699
31543
33.6430326627312
31398
33.6479542387925
31592
33.6528758148538
31511
33.6577973909152
31704
33.6627189669765
31371
33.6645745904842
31476
33.6650527570474
31425
33.6655309236107
31636
33.666009090174
31639
33.6664872567373
31965
33.6669654233006
31794
33.6674435898639
31962
33.6679217564272
31848
33.6683999229904
31813
33.6688780895537
32175
33.669356256117
32033
33.6698344226803
31822
33.6703125892436
31925
33.6707907558069
31742
33.6712689223702
31931
33.6717470889334
31874
33.6722252554967
31915
33.67270342206
32107
33.6731815886233
32012
33.6736597551866
31832
33.6741379217499
32101
33.6746160883132
32253
33.6750942548764
31977
33.6755724214397
32280
33.676050588003
31989
33.6765287545663
31941
33.6770069211296
32108
33.6774850876929
32044
33.6779632542562
32222
33.6784414208194
32327
33.6789195873827
32100
33.679397753946
32202
33.6798759205093
32374
33.6803540870726
32407
33.6808322536359
32170
33.6813104201992
32238
33.6817885867624
32369
33.6822667533257
32360
33.682744919889
32543
33.6832230864523
32417
33.682417625678
32393
33.6810354627665
32339
33.679653299855
32600
33.6782711369435
32498
33.676888974032
32245
33.6755068111205
32489
33.674124648209
32764
33.6727424852975
32718
33.671360322386
32722
33.6699781594745
32657
33.668595996563
32548
33.6672138336515
32651
33.6658316707399
32762
33.6644495078284
32679
33.6630673449169
32748
33.6616851820054
32647
33.6603030190939
32939
33.6589208561824
33206
33.6575386932709
33057
33.6561565303594
33053
33.6547743674479
32960
33.6533922045364
33053
33.6520100416249
32897
33.6506278787134
32774
33.6492457158019
32929
33.6478635528904
33013
33.6464813899789
33115
33.6450992270674
33171
33.6437170641559
33045
33.6423349012444
32948
33.6409527383329
33333
33.6395705754214
33449
33.6381884125099
33352
33.6368062495984
33026
33.6354240866869
33017
33.6340419237754
32775
33.6326597608639
33165
33.6312775979524
32873
33.6298954350409
33315
33.6285132721294
33097
33.6271311092179
33064
33.6257489463064
33188
33.6243667833949
33400
33.6229846204834
33122
33.6216024575719
33179
33.6202202946604
33262
33.6188381317489
33555
33.6174559688374
33272
33.6160738059259
33157
33.6146916430143
33430
33.6133094801028
33290
33.6119273171913
33577
33.6105451542798
33545
33.6091629913683
33612
33.6077808284568
33676
33.6063986655453
33537
33.6050165026338
33692
33.6036343397223
33696
33.6022521768108
33633
33.6008700138993
33627
33.6049684028743
33928
33.6115290687839
33916
33.6180897346934
33487
33.6246504006029
33914
33.6312110665124
34022
33.637771732422
34301
33.6443323983315
34073
33.650893064241
33788
33.6574537301505
33972
33.6640143960601
33514
33.6705750619696
34210
33.6771357278791
34214
33.6836963937887
33935
33.6902570596982
33754
33.6968177256077
33734
33.7033783915172
33982
33.7099390574268
34150
33.7164997233363
34141
33.7230603892458
34114
33.7296210551553
34028
33.7361817210649
33995
33.7427423869744
34129
33.7493030528839
34093
33.7558637187934
34222
33.762424384703
34293
33.7689850506125
34106
33.775545716522
34195
33.7821063824316
34376
33.7886670483411
34321
33.7952277142506
34250
33.8017883801601
34408
33.8083490460697
34133
33.8149097119792
34308
33.8214703778887
34337
33.8280310437982
34494
33.8345917097078
34380
33.8411523756173
34371
33.8477130415268
34312
33.8542737074363
34424
33.8608343733459
34379
33.8673950392554
34567
33.8739557051649
34230
33.8805163710744
34374
33.887077036984
34488
33.8936377028935
34739
33.900198368803
35055
33.9067590347126
34640
33.9133197006221
34950
33.9198803665316
34550
33.9264410324411
34475
33.9270445296009
34707
33.9249716176123
34918
33.9228987056237
34808
33.920825793635
34944
33.9187528816464
34948
33.9166799696578
34549
33.9146070576691
34949
33.9125341456805
34873
33.9104612336919
34968
33.9083883217032
34899
33.9063154097146
34757
33.904242497726
34857
33.9021695857373
34969
33.9000966737487
34938
33.8980237617601
35196
33.8959508497714
35372
33.8938779377828
35169
33.8918050257942
34788
33.8897321138055
34984
33.8876592018169
35409
33.8855862898283
35434
33.8835133778396
35251
33.881440465851
34953
33.8793675538624
35180
33.8772946418737
35294
33.8752217298851
35411
33.8731488178965
35162
33.8710759059078
34977
33.8690029939192
35139
33.8669300819306
35392
33.8648571699419
35458
33.8627842579533
35323
33.8607113459647
35196
33.858638433976
35243
33.8565655219874
35354
33.8544926099988
35424
33.8524196980101
35576
33.8503467860215
35654
33.8482738740329
35633
33.8462009620443
35495
33.8441280500556
35687
33.842055138067
35707
33.8399822260783
35564
33.8379093140897
35577
33.8358364021011
35612
33.8337634901125
35646
33.8316905781238
35710
33.8296176661352
35570
33.8275447541466
35599
33.8254718421579
35418
33.8233989301693
35721
33.8213260181807
35666
33.819253106192
35801
33.8171801942034
35937
33.8151072822148
35987
33.8130343702261
36134
33.8109614582375
35976
33.8088885462489
35861
33.8068156342602
35585
33.8047427222716
35860
33.807887204429
35912
33.8133757332318
36140
33.8188642620345
35821
33.8243527908372
35926
33.82984131964
36050
33.8353298484427
36393
33.8408183772455
36223
33.8463069060482
36597
33.851795434851
36347
33.8572839636537
36204
33.8627724924565
36302
33.8682610212592
36369
33.873749550062
36653
33.8792380788647
36330
33.8847266076675
36561
33.8902151364702
36426
33.8957036652729
36464
33.9011921940757
36425
33.9066807228784
36668
33.9121692516812
36839
33.9176577804839
36818
33.9231463092867
36491
33.9286348380894
36393
33.9341233668922
36630
33.9396118956949
36660
33.9451004244977
36532
33.9505889533004
36672
33.9560774821032
36755
33.9615660109059
36687
33.9670545397086
36681
33.9725430685114
36878
33.9780315973141
36626
33.9835201261169
36840
33.9890086549196
36990
33.9944971837224
37076
33.9999857125251
36888
34.0054742413279
36583
34.0109627701306
37038
34.0164512989334
36981
34.0219398277361
36997
34.0200714354915
37038
34.0148977598779
37241
34.0097240842642
37345
34.0045504086505
37595
33.9993767330369
37164
33.9942030574232
37143
33.9890293818095
37448
33.9838557061959
37285
33.9786820305822
37385
33.9735083549685
37531
33.9683346793549
37331
33.9631610037412
37574
33.9579873281276
37667
33.9528136525139
37630
33.9476399769002
37715
33.9424663012866
38019
33.9372926256729
37947
33.9321189500592
37826
33.9269452744456
37925
33.9217715988319
37832
33.9165979232182
37914
33.9114242476046
38148
33.9062505719909
38334
33.9010768963772
38109
33.8959032207636
37597
33.8907295451499
37746
33.8855558695362
37654
33.8803821939226
37686
33.8752085183089
37620
33.8700348426952
37710
33.8648611670816
37756
33.8596874914679
37810
33.8545138158542
37715
33.8493401402406
37613
33.8441664646269
37938
33.8389927890133
38035
33.8338191133996
38159
33.8286454377859
38640
33.8234717621723
39120
33.8182980865586
39595
33.8131244109449
40479
33.8079507353313
42819
33.8027770597176
46315
33.7976033841039
49197
33.7924297084903
48231
33.7872560328766
44142
33.7820823572629
40325
33.7769086816493
38122
33.7717350060356
37245
33.7665613304219
36968
33.7613876548083
37046
33.7562139791946
37145
33.751040303581
37046
33.7458666279673
37076
33.7406929523536
37160
33.73551927674
37104
33.7303456011263
37028
33.7251719255126
36947
33.719998249899
37293
33.7148245742853
37069
33.7153044657385
37091
33.7183243655841
37121
33.7213442654296
37218
33.7243641652752
37144
33.7273840651207
37117
33.7304039649663
37254
33.7334238648118
37343
33.7364437646574
37388
33.739463664503
36946
33.7424835643485
37090
33.7455034641941
37581
33.7485233640396
37074
33.7515432638852
37242
33.7545631637308
37724
33.7575830635763
37334
33.7606029634219
37569
33.7636228632674
37103
33.766642763113
37215
33.7696626629586
37186
33.7726825628041
37502
33.7757024626497
37451
33.7787223624952
37572
33.7817422623408
37648
33.7847621621864
37611
33.7877820620319
37895
33.7908019618775
37813
33.793821861723
37868
33.7968417615686
37758
33.7998616614141
37656
33.8028815612597
37776
33.8059014611053
37877
33.8089213609508
37723
33.8119412607964
37672
33.8149611606419
37909
33.8179810604875
38138
33.8210009603331
37547
33.8240208601786
37667
33.8270407600242
38264
33.8300606598697
37811
33.8330805597153
38008
33.834824515171
38151
33.8359952202486
38046
33.8371659253262
38044
33.8383366304037
38001
33.8395073354813
38345
33.8406780405589
38226
33.8418487456365
38453
33.8430194507141
38309
33.8441901557917
38095
33.8453608608693
38103
33.8465315659469
38320
33.8477022710245
38396
33.8488729761021
38401
33.8500436811797
38127
33.8512143862573
38266
33.8523850913349
38332
33.8535557964125
38423
33.8547265014901
38610
33.8558972065677
38713
33.8570679116453
38513
33.8582386167229
38519
33.8594093218005
38282
33.8605800268781
38433
33.8617507319557
38828
33.8629214370332
38900
33.8640921421108
38539
33.8652628471884
38698
33.866433552266
38885
33.8676042573436
38784
33.8687749624212
38954
33.8699456674988
38715
33.8711163725764
38855
33.872287077654
39168
33.8734577827316
38618
33.8746284878092
38929
33.8757991928868
39002
33.8769698979644
39043
33.878140603042
38740
33.8793113081196
39185
33.8804820131972
38939
33.8816527182748
39169
33.8828234233524
39431
33.88399412843
39272
33.8851648335076
39223
33.8863355385851
39489
33.8875062436627
39444
33.8886769487403
39507
33.8898476538179
39612
33.8910183588955
39482
33.8921890639731
39541
33.8955821738059
39533
33.8999737553402
39461
33.9043653368745
39248
33.9087569184088
39372
33.9131484999432
39447
33.9175400814775
39407
33.9219316630118
39789
33.9263232445461
39714
33.9307148260804
40042
33.9351064076148
39896
33.9394979891491
39888
33.9438895706834
39783
33.9482811522177
39846
33.9526727337521
40013
33.9570643152864
40142
33.9614558968207
40152
33.965847478355
40018
33.9702390598894
40284
33.9746306414237
40212
33.979022222958
40251
33.9834138044923
40188
33.9878053860267
40085
33.992196967561
40370
33.9965885490953
40474
34.0009801306296
40556
34.005371712164
40590
34.0097632936983
40438
34.0141548752326
40319
34.0185464567669
40374
34.0229380383012
40535
34.0273296198356
40416
34.0317212013699
40518
34.0361127829042
40651
34.0405043644385
40755
34.0448959459729
40696
34.0492875275072
40853
34.0536791090415
40649
34.0580706905758
40493
34.0624622721102
40674
34.0668538536445
40858
34.0592742513371
40744
34.0463162910719
41091
34.0333583308066
41069
34.0204003705414
40842
34.0074424102761
41184
33.9944844500109
41205
33.9815264897456
41226
33.9685685294804
41231
33.9556105692152
41231
33.9426526089499
41415
33.9296946486847
41549
33.9167366884194
41674
33.9037787281542
41442
33.8908207678889
41594
33.8778628076237
41535
33.8649048473584
41634
33.8519468870932
41763
33.838988926828
41332
33.8260309665627
41556
33.8130730062975
41785
33.8001150460322
41486
33.787157085767
41351
33.7741991255017
41577
33.7612411652365
41879
33.7482832049712
41878
33.735325244706
41968
33.7223672844408
42240
33.7094093241755
41819
33.6964513639103
42058
33.683493403645
42049
33.6705354433798
42137
33.6575774831145
42470
33.6446195228493
42894
33.631661562584
42990
33.6187036023188
42954
33.6057456420535
43419
33.5927876817883
43265
33.5798297215231
43504
33.5668717612578
43847
33.5539138009926
43786
33.5409558407273
43700
33.5279978804621
43880
33.5150399201968
43944
33.5020819599316
43813
33.4891239996663
43600
33.4761660394011
43520
33.4632080791359
43268
33.4502501188706
42729
33.4372921586054
42407
33.4243341983401
42054
33.4113762380749
41529
33.3984182778096
40889
33.3854603175444
40429
33.3725023572791
40655
33.3595443970139
40404
33.3465864367487
40200
33.3336284764834
40358
33.3206705162182
40890
33.3077125559529
41482
33.2947545956877
42059
33.2817966354224
42913
33.2688386751572
43644
33.2558807148919
44790
33.2429227546267
45904
33.2299647943615
46694
33.2170068340962
47364
33.204048873831
47825
33.1910909135657
48494
33.1781329533005
49020
33.1651749930352
49484
33.15221703277
49466
33.1392590725047
49681
33.1263011122395
49432
33.1133431519743
48738
33.100385191709
47734
33.0874272314438
46375
33.0744692711785
44582
33.0615113109133
41954
33.048553350648
39213
33.0355953903828
36772
33.0226374301175
34460
33.0096794698523
31948
32.9967215095871
29946
32.9837635493218
27594
32.9708055890566
25671
32.9578476287913
24212
32.9448896685261
23236
32.9319317082608
22806
32.9189737479956
22980
32.9060157877303
23816
32.9160162601181
25370
32.9363313906542
28308
32.9566465211904
31452
32.9769616517265
36260
32.9972767822627
41723
33.0175919127988
44887
33.037907043335
45493
33.0582221738711
47235
33.0785373044073
53851
33.0988524349434
74377
33.1191675654796
137235
33.1394826960157
240862
33.1597978265519
169888
33.180112957088
43112
33.2004280876242
8367
33.2207432181603
4958
33.2410583486965
3546
33.2613734792326
2576
33.2816886097688
2022
33.3020037403049
1810
33.3223188708411
1700
33.3426340013772
1660
33.3629491319134
1576
33.3832642624495
1550
33.4035793929856
1560
33.4238945235218
1524
33.4442096540579
1500
33.4645247845941
1431
33.4848399151303
1468
33.5051550456664
1409
33.5254701762026
1408
33.5457853067387
1440
33.5661004372748
1435
33.586415567811
1427
33.6067306983471
1384
33.6270458288833
1391
33.6473609594195
1352
33.6676760899556
1415
33.6879912204917
1406
33.7083063510279
1413
33.728621481564
1404
33.7489366121002
1410
33.7692517426363
1465
33.7895668731725
1408
33.8098820037086
1389
33.8301971342448
1387
33.8505122647809
1458
33.8708273953171
1428
33.8911425258532
1394
33.9114576563894
1390
33.9231372000242
1396
33.930936987225
1404
33.9387367744258
1446
33.9465365616266
1387
33.9543363488275
1446
33.9621361360283
1419
33.9699359232291
1377
33.9777357104299
1385
33.9855354976308
1370
33.9933352848316
1417
34.0011350720324
1403
34.0089348592332
1400
34.0167346464341
1408
34.0245344336349
1365
34.0323342208357
1418
34.0401340080365
1423
34.0479337952374
1400
34.0557335824382
1384
34.063533369639
1377
34.0713331568398
1360
34.0791329440407
1379
34.0869327312415
1430
34.0947325184423
1443
34.1025323056431
1410
34.110332092844
1410
34.1181318800448
1404
34.1259316672456
1456
34.1337314544464
1500
34.1415312416473
1431
34.1493310288481
1404
34.1571308160489
1419
34.1649306032497
1384
34.1727303904506
1380
34.1805301776514
1478
34.1883299648522
1453
34.196129752053
1400
34.2039295392539
1405
34.2117293264547
1415
34.2195291136555
1469
34.2273289008563
1455
34.2351286880572
1431
34.242928475258
1397
34.2507282624588
1421
34.2585280496596
1426
34.2663278368604
1484
34.2741276240613
1445
34.2819274112621
1457
34.2897271984629
1418
34.2975269856638
1394
34.3053267728646
1439
34.3131265600654
1392
34.3209263472662
1430
34.328726134467
1383
34.3365259216679
1477
34.3443257088687
1466
34.3521254960695
1410
34.3599252832703
1378
34.3677250704712
1390
34.375524857672
1413
34.3833246448728
1448
34.3842158080476
1454
34.38200309666
1447
34.3797903852724
1432
34.3775776738847
1460
34.3753649624971
1476
34.3731522511095
1459
34.3709395397218
1468
34.3687268283342
1492
34.3665141169466
1449
34.364301405559
1462
34.3620886941713
1503
34.3598759827837
1463
34.3576632713961
1433
34.3554505600085
1468
34.3532378486208
1483
34.3510251372332
1515
34.3488124258456
1455
34.3465997144579
1508
34.3443870030703
1494
34.3421742916827
1476
34.3399615802951
1473
34.3377488689074
1452
34.3355361575198
1437
34.3333234461322
1449
34.3311107347446
1424
34.3288980233569
1403
34.3266853119693
1451
34.3244726005817
1539
34.3222598891941
1536
34.3200471778064
1506
34.3178344664188
1704
34.3156217550312
1772
34.3134090436435
1820
34.3111963322559
1855
34.3089836208683
1747
34.3067709094807
1582
34.304558198093
1473
34.3023454867054
1451
34.3001327753178
1425
34.2979200639301
1487
34.2957073525425
1484
34.2934946411549
1467
34.2912819297673
1453
34.2890692183796
1431
34.286856506992
1440
34.2846437956044
1505
34.2824310842168
1442
34.2802183728291
1532
34.2780056614415
1501
34.2757929500539
1532
34.2735802386662
1490
34.2713675272786
1499
34.269154815891
1499
34.2669421045034
1459
34.2647293931157
1495
34.2625166817281
1546
34.2462098704746
1482
34.2235709273972
1467
34.2009319843199
1493
34.1782930412425
1492
34.1556540981652
1511
34.1330151550878
1515
34.1103762120104
1507
34.0877372689331
1484
34.0650983258557
1521
34.0424593827784
1476
34.019820439701
1461
33.9971814966237
1524
33.9745425535463
1498
33.951903610469
1505
33.9292646673916
1498
33.9066257243143
1434
33.8839867812369
1496
33.8613478381595
1480
33.8387088950822
1559
33.8160699520048
1466
33.7934310089275
1504
33.7707920658501
1512
33.7481531227728
1510
33.7255141796954
1499
33.7028752366181
1534
33.6802362935407
1675
33.6575973504633
1809
33.634958407386
1939
33.6123194643086
1846
33.5896805212313
1657
33.5670415781539
1554
33.5444026350766
1454
33.5217636919992
1460
33.4991247489219
1445
33.4764858058445
1483
33.4538468627672
1508
33.4312079196898
1500
33.4085689766124
1449
33.3859300335351
1508
33.3632910904577
1512
33.3406521473804
1531
33.318013204303
1523
33.2953742612257
1518
33.2727353181483
1523
33.250096375071
1447
33.2274574319936
1474
33.2048184889163
1447
33.1821795458389
1488
33.1595406027615
1559
33.1369016596842
1535
33.1142627166068
1552
33.0916237735295
1477
33.0689848304521
1482
33.0463458873748
1515
33.0237069442974
1598
33.0010680012201
1589
32.9784290581427
1544
32.9557901150653
1610
32.933151171988
1581
32.9105122289106
1530
32.8878732858333
1537
32.8652343427559
1550
32.8425953996786
1514
32.8199564566012
1525
32.7973175135239
1469
32.7746785704465
1469
32.7520396273692
1464
32.7294006842918
1444
32.7067617412145
1458
32.6841227981371
1474
32.6614838550597
1555
32.6388449119824
1575
32.616205968905
1553
32.5935670258277
1573
32.5709280827503
1579
32.548289139673
1700
32.5256501965956
1680
32.5030112535183
1700
32.4803723104409
1700
32.4577333673635
1764
32.4350944242862
1837
32.4124554812088
1836
32.3898165381315
1829
32.3671775950541
1916
32.3445386519768
1864
32.3218997088994
1780
32.2992607658221
1822
32.2766218227447
1803
32.2539828796674
1750
32.23134393659
1693
32.2087049935126
1630
32.1860660504353
1594
32.1634271073579
1549
32.1407881642806
1452
32.1181492212032
1410
32.0955102781259
1364
32.0728713350485
1293
32.0502323919712
1293
32.0275934488938
1329
32.0049545058164
1343
31.9823155627391
1346
31.9596766196617
1425
31.9370376765844
1502
31.914398733507
1516
31.8917597904297
1711
31.8691208473523
1768
31.846481904275
1906
31.8238429611976
2111
31.8012040181203
2494
31.7785650750429
2777
31.7559261319655
2987
31.7332871888882
2988
31.7106482458108
3031
31.6880093027335
2884
31.6653703596561
2645
31.6427314165788
2385
31.6200924735014
2249
31.5974535304241
2074
31.5748145873467
1744
31.5521756442694
1516
31.529536701192
1403
31.5068977581146
1219
31.4842588150373
1054
31.4616198719599
764
31.4389809288826
558
31.4163419858052
358
31.3937030427279
251
31.3710640996505
168
31.3484251565732
92
31.3257862134958
39
31.3031472704185
12
31.2805083273411
4
31.2578693842637
3
31.2352304411864
2
31.212591498109
1
31.1899525550317
C 1s
HT CP 19 Ap
2023
5
9
19
57
45
2
41
Creation
Created by : XPSUser
Date created : 09/05/2023 19:57
Computer : DESKTOP-U3MGE2F
Location
Location ID : C1
Sample : HT CP 19 Ap
Description : (47.619,16.070,-0.852)mm
Tilt : 0.00
Charge Neutraliser : On
Filament Current : 0.53A
Filament Bias : 2.02V
Charge Balance : 5.02V
Settings
Excitation
Mode : XPS - monochromatic
Tuning : Spectroscopy
Emission current : 15.00mA
Anode library : Al
ESCA modes
Collimation : Slot
Lens : Hybrid
Resolution : 20.00
Scan
Deflection : (0.000, 0.000)mm
C 1s : 1191.690-1209.690eV, Sweeps 1
Start : 1191.690eV
End : 1209.690eV
Centre : 1200.690eV
Width : 18.000eV
Step size : 0.100eV
Number Steps : 180
Dwell time : 331ms
Sweep time : 60s
Sweeps : 1
Target quality : 200
Instrument Conditions
Work function : -4.50
Acquisition Conditions
X-ray Power : 225.00W
Quality : 315.34
XPS
2
47.6185
16.0701171875
-0.852359375
Al (mono)
1486.69
225
1E+37
1E+37
1E+37
1E+37
FAT
20
1E+37
-4.5
1E+37
1E+37
1E+37
1E+37
1E+37
C
1s
-1
Kinetic energy
eV
1191.69
0.1
2
Intensity
d
Transmission
d
pulse counting
0.331492
1
0
1E+37
1E+37
1E+37
0
362
52
29840
1.33571680812406
1.34279197206053
852
1.33571680812406
905
1.33575611459037
922
1.33579542105669
882
1.335834727523
925
1.33587403398932
968
1.33591334045563
950
1.33595264692194
951
1.33599195338826
951
1.33603125985457
995
1.33607056632088
986
1.3361098727872
1000
1.33614917925351
1008
1.33618848571983
1027
1.33622779218614
1047
1.33626709865245
1024
1.33630640511877
999
1.33634571158508
1047
1.33638501805139
1084
1.33642432451771
1018
1.33646363098402
1048
1.33650293745034
1083
1.33654224391665
1067
1.33658155038296
1076
1.33662085684928
1120
1.33666016331559
1133
1.3366994697819
1123
1.33673877624822
1137
1.33677808271453
1151
1.33681738918085
1203
1.33685669564716
1256
1.33689600211347
1269
1.33693530857979
1262
1.3369746150461
1273
1.33701392151241
1384
1.33705322797873
1380
1.33709253444504
1443
1.33713184091135
1427
1.33717114737767
1474
1.33721045384398
1550
1.3372497603103
1565
1.33728906677661
1571
1.33732837324292
1607
1.33736767970924
1556
1.33740698617555
1561
1.33744629264186
1574
1.33748559910818
1634
1.33752490557449
1509
1.33756421204081
1566
1.33760351850712
1516
1.33764282497343
1468
1.33768213143975
1510
1.33772143790606
1481
1.33776074437237
1479
1.33780005083869
1493
1.337839357305
1516
1.33787866377132
1449
1.33791797023763
1399
1.33795727670394
1374
1.33799658317026
1419
1.33803588963657
1392
1.33807519610288
1409
1.3381145025692
1399
1.33815380903551
1372
1.33819311550182
1348
1.33823242196814
1410
1.33827172843445
1341
1.33831103490077
1348
1.33835034136708
1349
1.33838964783339
1361
1.33842895429971
1391
1.33846826076602
1390
1.33850756723233
1430
1.33854687369865
1418
1.33858618016496
1473
1.33862548663128
1495
1.33866479309759
1450
1.3387040995639
1474
1.33874340603022
1516
1.33878271249653
1550
1.33882201896284
1605
1.33886132542916
1617
1.33890063189547
1599
1.33893993836179
1709
1.3389792448281
1758
1.33901855129441
1834
1.33905785776073
1905
1.33909716422704
1962
1.33913647069335
1922
1.33917577715967
2068
1.33921508362598
2176
1.3392543900923
2237
1.33929369655861
2329
1.33933300302492
2507
1.33937230949124
2527
1.33941161595755
2641
1.33945092242386
2727
1.33949022889018
2895
1.33952953535649
2970
1.3395688418228
3122
1.33960814828912
3313
1.33964745475543
3582
1.33968676122175
3810
1.33972606768806
4280
1.33976537415437
5053
1.33980468062069
5912
1.339843987087
7443
1.33988329355331
10357
1.33992260001963
14370
1.33996190648594
19862
1.34000121295226
25946
1.34004051941857
29840
1.34007982588488
28438
1.3401191323512
22021
1.34015843881751
13932
1.34019774528382
7796
1.34023705175014
4350
1.34027635821645
2621
1.34031566468277
1774
1.34035497114908
1309
1.34039427761539
1007
1.34043358408171
780
1.34047289054802
627
1.34051219701433
508
1.34055150348065
388
1.34059080994696
324
1.34063011641328
299
1.34066942287959
245
1.3407087293459
220
1.34074803581222
200
1.34078734227853
184
1.34082664874484
166
1.34086595521116
161
1.34090526167747
170
1.34094456814378
144
1.3409838746101
132
1.34102318107641
140
1.34106248754273
132
1.34110179400904
119
1.34114110047535
101
1.34118040694167
108
1.34121971340798
101
1.34125901987429
104
1.34129832634061
96
1.34133763280692
90
1.34137693927324
76
1.34141624573955
85
1.34145555220586
77
1.34149485867218
73
1.34153416513849
91
1.3415734716048
79
1.34161277807112
72
1.34165208453743
81
1.34169139100375
78
1.34173069747006
75
1.34177000393637
75
1.34180931040269
74
1.341848616869
66
1.34188792333531
73
1.34192722980163
75
1.34196653626794
73
1.34200584273426
62
1.34204514920057
60
1.34208445566688
63
1.3421237621332
56
1.34216306859951
68
1.34220237506582
72
1.34224168153214
56
1.34228098799845
62
1.34232029446476
57
1.34235960093108
61
1.34239890739739
52
1.34243821386371
67
1.34247752033002
69
1.34251682679633
65
1.34255613326265
63
1.34259543972896
56
1.34263474619527
66
1.34267405266159
68
1.3427133591279
55
1.34275266559422
58
1.34279197206053
Cl2s
HT CP 19 Ap
2023
5
9
19
57
45
2
41
Creation
Created by : XPSUser
Date created : 09/05/2023 19:57
Computer : DESKTOP-U3MGE2F
Location
Location ID : C1
Sample : HT CP 19 Ap
Description : (47.619,16.070,-0.852)mm
Tilt : 0.00
Charge Neutraliser : On
Filament Current : 0.53A
Filament Bias : 2.02V
Charge Balance : 5.02V
Settings
Excitation
Mode : XPS - monochromatic
Tuning : Spectroscopy
Emission current : 15.00mA
Anode library : Al
ESCA modes
Collimation : Slot
Lens : Hybrid
Resolution : 20.00
Scan
Deflection : (0.000, 0.000)mm
Cl2s : 1201.690-1231.690eV, Sweeps 1
Start : 1201.690eV
End : 1231.690eV
Centre : 1216.690eV
Width : 30.000eV
Step size : 0.100eV
Number Steps : 300
Dwell time : 199ms
Sweep time : 60s
Sweeps : 1
Target quality : 200
Instrument Conditions
Work function : -4.50
Acquisition Conditions
X-ray Power : 225.00W
Quality : 577.70
XPS
3
47.6185
16.0701171875
-0.852359375
Al (mono)
1486.69
225
1E+37
1E+37
1E+37
1E+37
FAT
20
1E+37
-4.5
1E+37
1E+37
1E+37
1E+37
1E+37
Cl2s

-1
Kinetic energy
eV
1201.69
0.1
2
Intensity
d
Transmission
d
pulse counting
0.199335548172757
1
0
1E+37
1E+37
1E+37
0
602
17
18090
1.33964745475543
1.35143939464955
2000
1.33964745475543
2198
1.33968676122175
2385
1.33972606768806
2599
1.33976537415437
3074
1.33980468062069
3766
1.339843987087
4808
1.33988329355331
6490
1.33992260001963
9072
1.33996190648594
12707
1.34000121295226
16208
1.34004051941857
18090
1.34007982588488
16484
1.3401191323512
12265
1.34015843881751
7589
1.34019774528382
4229
1.34023705175014
2363
1.34027635821645
1432
1.34031566468277
1013
1.34035497114908
714
1.34039427761539
561
1.34043358408171
431
1.34047289054802
358
1.34051219701433
307
1.34055150348065
242
1.34059080994696
208
1.34063011641328
166
1.34066942287959
125
1.3407087293459
112
1.34074803581222
124
1.34078734227853
106
1.34082664874484
89
1.34086595521116
100
1.34090526167747
88
1.34094456814378
78
1.3409838746101
73
1.34102318107641
80
1.34106248754273
77
1.34110179400904
74
1.34114110047535
70
1.34118040694167
51
1.34121971340798
62
1.34125901987429
56
1.34129832634061
58
1.34133763280692
53
1.34137693927324
53
1.34141624573955
52
1.34145555220586
60
1.34149485867218
61
1.34153416513849
59
1.3415734716048
53
1.34161277807112
51
1.34165208453743
45
1.34169139100375
38
1.34173069747006
46
1.34177000393637
40
1.34180931040269
49
1.341848616869
30
1.34188792333531
38
1.34192722980163
46
1.34196653626794
37
1.34200584273426
44
1.34204514920057
46
1.34208445566688
39
1.3421237621332
28
1.34216306859951
33
1.34220237506582
33
1.34224168153214
24
1.34228098799845
30
1.34232029446476
46
1.34235960093108
36
1.34239890739739
41
1.34243821386371
34
1.34247752033002
49
1.34251682679633
36
1.34255613326265
32
1.34259543972896
45
1.34263474619527
37
1.34267405266159
42
1.3427133591279
36
1.34275266559422
29
1.34279197206053
29
1.34283127852684
42
1.34287058499316
36
1.34290989145947
31
1.34294919792578
37
1.3429885043921
29
1.34302781085841
24
1.34306711732473
35
1.34310642379104
39
1.34314573025735
32
1.34318503672367
26
1.34322434318998
30
1.34326364965629
33
1.34330295612261
34
1.34334226258892
37
1.34338156905524
32
1.34342087552155
25
1.34346018198786
28
1.34349948845418
30
1.34353879492049
35
1.3435781013868
37
1.34361740785312
38
1.34365671431943
25
1.34369602078574
33
1.34373532725206
31
1.34377463371837
33
1.34381394018469
38
1.343853246651
36
1.34389255311731
36
1.34393185958363
29
1.34397116604994
21
1.34401047251625
26
1.34404977898257
29
1.34408908544888
35
1.3441283919152
36
1.34416769838151
43
1.34420700484782
37
1.34424631131414
30
1.34428561778045
33
1.34432492424676
33
1.34436423071308
30
1.34440353717939
35
1.34444284364571
37
1.34448215011202
27
1.34452145657833
27
1.34456076304465
34
1.34460006951096
32
1.34463937597727
30
1.34467868244359
41
1.3447179889099
32
1.34475729537622
36
1.34479660184253
34
1.34483590830884
30
1.34487521477516
38
1.34491452124147
33
1.34495382770778
30
1.3449931341741
35
1.34503244064041
34
1.34507174710672
28
1.34511105357304
23
1.34515036003935
21
1.34518966650567
25
1.34522897297198
26
1.34526827943829
32
1.34530758590461
33
1.34534689237092
40
1.34538619883723
33
1.34542550530355
27
1.34546481176986
38
1.34550411823618
37
1.34554342470249
40
1.3455827311688
41
1.34562203763512
32
1.34566134410143
26
1.34570065056774
35
1.34573995703406
37
1.34577926350037
27
1.34581856996669
35
1.345857876433
36
1.34589718289931
36
1.34593648936563
34
1.34597579583194
31
1.34601510229825
29
1.34605440876457
31
1.34609371523088
22
1.34613302169719
31
1.34617232816351
34
1.34621163462982
43
1.34625094109614
31
1.34629024756245
26
1.34632955402876
33
1.34636886049508
30
1.34640816696139
33
1.3464474734277
27
1.34648677989402
24
1.34652608636033
38
1.34656539282665
40
1.34660469929296
34
1.34664400575927
29
1.34668331222559
30
1.3467226186919
33
1.34676192515821
34
1.34680123162453
36
1.34684053809084
38
1.34687984455716
26
1.34691915102347
29
1.34695845748978
22
1.3469977639561
27
1.34703707042241
34
1.34707637688872
37
1.34711568335504
36
1.34715498982135
24
1.34719429628767
31
1.34723360275398
27
1.34727290922029
28
1.34731221568661
26
1.34735152215292
32
1.34739082861923
28
1.34743013508555
34
1.34746944155186
31
1.34750874801817
28
1.34754805448449
29
1.3475873609508
28
1.34762666741712
42
1.34766597388343
37
1.34770528034974
32
1.34774458681606
26
1.34778389328237
25
1.34782319974868
39
1.347862506215
34
1.34790181268131
32
1.34794111914763
34
1.34798042561394
31
1.34801973208025
23
1.34805903854657
26
1.34809834501288
25
1.34813765147919
34
1.34817695794551
35
1.34821626441182
36
1.34825557087814
36
1.34829487734445
36
1.34833418381076
34
1.34837349027708
30
1.34841279674339
37
1.3484521032097
34
1.34849140967602
30
1.34853071614233
27
1.34857002260865
34
1.34860932907496
36
1.34864863554127
49
1.34868794200759
33
1.3487272484739
28
1.34876655494021
24
1.34880586140653
27
1.34884516787284
26
1.34888447433916
32
1.34892378080547
26
1.34896308727178
35
1.3490023937381
27
1.34904170020441
30
1.34908100667072
34
1.34912031313704
38
1.34915961960335
32
1.34919892606966
32
1.34923823253598
32
1.34927753900229
28
1.34931684546861
32
1.34935615193492
28
1.34939545840123
31
1.34943476486755
33
1.34947407133386
33
1.34951337780017
34
1.34955268426649
37
1.3495919907328
31
1.34963129719912
30
1.34967060366543
36
1.34970991013174
37
1.34974921659806
32
1.34978852306437
32
1.34982782953068
30
1.349867135997
29
1.34990644246331
30
1.34994574892963
23
1.34998505539594
30
1.35002436186225
38
1.35006366832857
28
1.35010297479488
29
1.35014228126119
31
1.35018158772751
27
1.35022089419382
30
1.35026020066013
30
1.35029950712645
22
1.35033881359276
28
1.35037812005908
27
1.35041742652539
33
1.3504567329917
29
1.35049603945802
26
1.35053534592433
28
1.35057465239064
23
1.35061395885696
27
1.35065326532327
30
1.35069257178959
27
1.3507318782559
37
1.35077118472221
29
1.35081049118853
35
1.35084979765484
30
1.35088910412115
35
1.35092841058747
36
1.35096771705378
25
1.3510070235201
28
1.35104632998641
26
1.35108563645272
30
1.35112494291904
45
1.35116424938535
37
1.35120355585166
31
1.35124286231798
20
1.35128216878429
17
1.35132147525061
26
1.35136078171692
30
1.35140008818323
30
1.35143939464955
F1s
HT CP 19 Ap
2023
5
9
19
57
45
2
41
Creation
Created by : XPSUser
Date created : 09/05/2023 19:57
Computer : DESKTOP-U3MGE2F
Location
Location ID : C1
Sample : HT CP 19 Ap
Description : (47.619,16.070,-0.852)mm
Tilt : 0.00
Charge Neutraliser : On
Filament Current : 0.53A
Filament Bias : 2.02V
Charge Balance : 5.02V
Settings
Excitation
Mode : XPS - monochromatic
Tuning : Spectroscopy
Emission current : 15.00mA
Anode library : Al
ESCA modes
Collimation : Slot
Lens : Hybrid
Resolution : 20.00
Scan
Deflection : (0.000, 0.000)mm
F1s : 791.690-811.690eV, Sweeps 5
Start : 791.690eV
End : 811.690eV
Centre : 801.690eV
Width : 20.000eV
Step size : 0.100eV
Number Steps : 200
Dwell time : 299ms
Sweep time : 60s
Sweeps : 5
Target quality : 200
Instrument Conditions
Work function : -4.50
Acquisition Conditions
X-ray Power : 225.00W
Quality : 7.00
XPS
4
47.6185
16.0701171875
-0.852359375
Al (mono)
1486.69
225
1E+37
1E+37
1E+37
1E+37
FAT
20
1E+37
-4.5
1E+37
1E+37
1E+37
1E+37
1E+37
F1s

-1
Kinetic energy
eV
791.69
0.1
2
Intensity
d
Transmission
d
pulse counting
0.298507462686567
5
0
1E+37
1E+37
1E+37
0
402
5946
6285
1.45714403256293
1.46809980524165
6063
1.46809980524165
6011
1.46804594968559
6010
1.46799209412953
6122
1.46793823857347
6267
1.46788438301742
6215
1.46783052746136
6109
1.4677766719053
6079
1.46772281634924
6117
1.46766896079318
6114
1.46761510523713
6139
1.46756124968107
6136
1.46750739412501
6106
1.46745353856895
6033
1.46739968301289
5946
1.46734582745684
6092
1.46729197190078
6114
1.46723811634472
6075
1.46718426078866
6184
1.4671304052326
6248
1.46707654967654
6127
1.46702269412049
5984
1.46696883856443
6100
1.46691498300837
6079
1.46686112745231
6017
1.46680727189625
6005
1.4667534163402
6234
1.46669956078414
6121
1.46664570522808
6171
1.46659184967202
6068
1.46653799411596
6076
1.46648413855991
6106
1.46643028300385
6080
1.46637642744779
6093
1.46632257189173
6055
1.46626871633567
6134
1.46621486077962
6101
1.46616100522356
6173
1.4661071496675
6150
1.46605329411144
6274
1.46599943855538
6115
1.46594558299933
6155
1.46589172744327
5985
1.46583787188721
6060
1.46578401633115
6088
1.46573016077509
6124
1.46567630521904
6188
1.46562244966298
6185
1.46556859410692
6067
1.46551473855086
6117
1.4654608829948
6222
1.46540702743874
6150
1.46535317188269
6002
1.46529931632663
6189
1.46524546077057
6207
1.46519160521451
6076
1.46513774965845
6128
1.4650838941024
6156
1.46503003854634
6127
1.46497618299028
6153
1.46492232743422
6107
1.46486847187816
6115
1.46481461632211
6203
1.46476076076605
6123
1.46470690520999
6087
1.46465304965393
6145
1.46459919409787
6117
1.46454533854182
6061
1.46449148298576
6188
1.4644376274297
6166
1.46438377187364
6154
1.46432991631758
6140
1.46427606076153
6069
1.46422220520547
6115
1.46416834964941
6147
1.46411449409335
6146
1.46406063853729
6119
1.46400678298124
6119
1.46395292742518
6099
1.46389907186912
6133
1.46384521631306
6055
1.463791360757
6164
1.46373750520094
6060
1.46368364964489
6149
1.46362979408883
6080
1.46357593853277
6082
1.46352208297671
6157
1.46346822742065
6075
1.4634143718646
6134
1.46336051630854
6164
1.46330666075248
6110
1.46325280519642
6102
1.46319894964036
6066
1.46314509408431
6161
1.46309123852825
6128
1.46303738297219
6129
1.46298352741613
6090
1.46292967186007
6032
1.46287581630402
6079
1.46282196074796
6119
1.4627681051919
6203
1.46271424963584
6152
1.46266039407978
6104
1.46260653852373
6163
1.46255268296767
6184
1.46249882741161
6089
1.46244497185555
6155
1.46239111629949
6224
1.46233726074344
6285
1.46228340518738
6110
1.46222954963132
6094
1.46217569407526
6086
1.4621218385192
6115
1.46206798296314
6116
1.46201412740709
6095
1.46196027185103
6131
1.46190641629497
6048
1.46185256073891
6146
1.46179870518285
6147
1.4617448496268
6096
1.46169099407074
6101
1.46163713851468
6057
1.46158328295862
6071
1.46152942740256
6125
1.46147557184651
6096
1.46142171629045
6217
1.46136786073439
6167
1.46131400517833
6132
1.46126014962227
6003
1.46120629406622
6158
1.46115243851016
6190
1.4610985829541
6184
1.46104472739804
6091
1.46099087184198
6168
1.46093701628593
6190
1.46088316072987
6103
1.46082930517381
6118
1.46077544961775
6053
1.46072159406169
6088
1.46066773850564
6132
1.46061388294958
6117
1.46056002739352
6197
1.46050617183746
6173
1.4604523162814
6130
1.46039846072534
6128
1.46034460516929
6220
1.46029074961323
6117
1.46023689405717
6180
1.46018303850111
6241
1.46012918294505
6003
1.460075327389
5994
1.46002147183294
6233
1.45996761627688
6119
1.45991376072082
6111
1.45985990516476
6197
1.45980604960871
6154
1.45975219405265
6187
1.45969833849659
6093
1.45964448294053
6169
1.45959062738447
6217
1.45953677182842
6159
1.45948291627236
6160
1.4594290607163
6057
1.45937520516024
6124
1.45932134960418
6128
1.45926749404813
6109
1.45921363849207
6180
1.45915978293601
6167
1.45910592737995
6179
1.45905207182389
6189
1.45899821626783
6135
1.45894436071178
6006
1.45889050515572
6024
1.45883664959966
6117
1.4587827940436
6220
1.45872893848754
6275
1.45867508293149
6246
1.45862122737543
6185
1.45856737181937
6160
1.45851351626331
6170
1.45845966070725
6064
1.4584058051512
6157
1.45835194959514
6114
1.45829809403908
6143
1.45824423848302
6111
1.45818054888434
6142
1.45811576661425
6188
1.45805098434416
6181
1.45798620207407
6033
1.45792141980398
6106
1.4578566375339
6140
1.45779185526381
6273
1.45772707299372
6090
1.45766229072363
6064
1.45759750845354
6098
1.45753272618346
6085
1.45746794391337
6123
1.45740316164328
6097
1.45733837937319
6202
1.4572735971031
6191
1.45720881483302
6133
1.45714403256293
O1s
HT CP 19 Ap
2023
5
9
19
57
45
2
41
Creation
Created by : XPSUser
Date created : 09/05/2023 19:57
Computer : DESKTOP-U3MGE2F
Location
Location ID : C1
Sample : HT CP 19 Ap
Description : (47.619,16.070,-0.852)mm
Tilt : 0.00
Charge Neutraliser : On
Filament Current : 0.53A
Filament Bias : 2.02V
Charge Balance : 5.02V
Settings
Excitation
Mode : XPS - monochromatic
Tuning : Spectroscopy
Emission current : 15.00mA
Anode library : Al
ESCA modes
Collimation : Slot
Lens : Hybrid
Resolution : 20.00
Scan
Deflection : (0.000, 0.000)mm
O1s : 946.690-961.690eV, Sweeps 5
Start : 946.690eV
End : 961.690eV
Centre : 954.190eV
Width : 15.000eV
Step size : 0.100eV
Number Steps : 150
Dwell time : 397ms
Sweep time : 60s
Sweeps : 5
Target quality : 200
Instrument Conditions
Work function : -4.50
Acquisition Conditions
X-ray Power : 225.00W
Quality : 65.68
XPS
5
47.6185
16.0701171875
-0.852359375
Al (mono)
1486.69
225
1E+37
1E+37
1E+37
1E+37
FAT
20
1E+37
-4.5
1E+37
1E+37
1E+37
1E+37
1E+37
O1s

-1
Kinetic energy
eV
946.69
0.1
2
Intensity
d
Transmission
d
pulse counting
0.397351
5
0
1E+37
1E+37
1E+37
0
302
8129
11919
1.39073012089434
1.39549665066723
8623
1.39549665066723
8536
1.39546487380208
8526
1.39543309693692
8373
1.39540132007177
8498
1.39536954320662
8537
1.39533776634147
8553
1.39530598947631
8592
1.39527421261116
8625
1.39524243574601
8687
1.39521065888085
8556
1.3951788820157
8558
1.39514710515055
8634
1.3951153282854
8548
1.39508355142024
8608
1.39505177455509
8644
1.39501999768994
8675
1.39498822082479
8429
1.39495644395963
8791
1.39492466709448
8676
1.39489289022933
8721
1.39486111336418
8678
1.39482933649902
8704
1.39479755963387
8706
1.39476578276872
8671
1.39473400590357
8699
1.39470222903841
8740
1.39467045217326
8724
1.39463867530811
8666
1.39460689844296
8773
1.3945751215778
8747
1.39454334471265
8691
1.3945115678475
8651
1.39447979098235
8600
1.39444801411719
8661
1.39441623725204
8719
1.39438446038689
8685
1.39435268352174
8703
1.39432090665658
8770
1.39428912979143
8852
1.39425735292628
8763
1.39422557606112
8772
1.39419379919597
8664
1.39416202233082
8744
1.39413024546567
8884
1.39409846860051
8955
1.39406669173536
8892
1.39403491487021
8882
1.39400313800506
8877
1.3939713611399
8906
1.39393958427475
9002
1.3939078074096
8950
1.39387603054445
8856
1.39384425367929
8875
1.39381247681414
9079
1.39378069994899
9154
1.39374892308384
9024
1.39371714621868
9179
1.39368536935353
9175
1.39365359248838
9291
1.39362181562323
9491
1.39359003875807
9536
1.39355826189292
9514
1.39352648502777
9640
1.39349470816262
9710
1.39346293129746
9973
1.39343115443231
10154
1.39339937756716
10474
1.393367600702
10628
1.39333582383685
10770
1.3933040469717
11040
1.39327227010655
11256
1.39324049324139
11412
1.39320871637624
11513
1.39317693951109
11697
1.39314516264594
11919
1.39311338578078
11827
1.39308160891563
11754
1.39304983205048
11656
1.39301805518533
11742
1.39298627832017
11801
1.39295450145502
11684
1.39292272458987
11627
1.39289094772472
11603
1.39285917085956
11645
1.39282739399441
11496
1.39279561712926
11509
1.39276384026411
11366
1.39273206339895
11067
1.3927002865338
10923
1.39266850966865
10934
1.3926367328035
10914
1.39260495593834
10763
1.39257317907319
10862
1.39254140220804
10686
1.39250962534289
10606
1.39247784847773
10502
1.39244607161258
10278
1.39241429474743
10248
1.39238251788227
9879
1.39235074101712
9973
1.39231896415197
9720
1.39228718728682
9484
1.39225541042166
9401
1.39222363355651
9152
1.39219185669136
8911
1.39216007982621
8883
1.39212830296105
8811
1.3920965260959
8601
1.39206474923075
8655
1.3920329723656
8626
1.39200119550044
8378
1.39196941863529
8435
1.39193764177014
8512
1.39190586490499
8498
1.39187408803983
8389
1.39184231117468
8403
1.39181053430953
8385
1.39177875744438
8318
1.39174698057922
8264
1.39171520371407
8396
1.39168342684892
8306
1.39165164998377
8207
1.39161987311861
8318
1.39158809625346
8403
1.39155631938831
8293
1.39152454252316
8353
1.391492765658
8287
1.39146098879285
8290
1.3914292119277
8289
1.39139743506254
8248
1.39136565819739
8377
1.39133388133224
8313
1.39130210446709
8315
1.39127032760193
8261
1.39123855073678
8129
1.39120677387163
8214
1.39117499700648
8268
1.39114322014132
8318
1.39111144327617
8309
1.39107966641102
8320
1.39104788954587
8360
1.39101611268071
8187
1.39098433581556
8190
1.39095255895041
8181
1.39092078208526
8225
1.3908890052201
8236
1.39085722835495
8333
1.3908254514898
8242
1.39079367462465
8322
1.39076189775949
8408
1.39073012089434
Cl2p
HT CP 19 Ap
2023
5
9
19
57
45
2
41
Creation
Created by : XPSUser
Date created : 09/05/2023 19:57
Computer : DESKTOP-U3MGE2F
Location
Location ID : C1
Sample : HT CP 19 Ap
Description : (47.619,16.070,-0.852)mm
Tilt : 0.00
Charge Neutraliser : On
Filament Current : 0.53A
Filament Bias : 2.02V
Charge Balance : 5.02V
Settings
Excitation
Mode : XPS - monochromatic
Tuning : Spectroscopy
Emission current : 15.00mA
Anode library : Al
ESCA modes
Collimation : Slot
Lens : Hybrid
Resolution : 20.00
Scan
Deflection : (0.000, 0.000)mm
Cl2p : 1278.690-1291.690eV, Sweeps 5
Start : 1278.690eV
End : 1291.690eV
Centre : 1285.190eV
Width : 13.000eV
Step size : 0.100eV
Number Steps : 130
Dwell time : 458ms
Sweep time : 60s
Sweeps : 5
Target quality : 200
Instrument Conditions
Work function : -4.50
Acquisition Conditions
X-ray Power : 225.00W
Quality : 6.40
XPS
6
47.6185
16.0701171875
-0.852359375
Al (mono)
1486.69
225
1E+37
1E+37
1E+37
1E+37
FAT
20
1E+37
-4.5
1E+37
1E+37
1E+37
1E+37
1E+37
Cl2p

-1
Kinetic energy
eV
1278.69
0.1
2
Intensity
d
Transmission
d
pulse counting
0.458015267175573
5
0
1E+37
1E+37
1E+37
0
262
329
408
1.34975176565477
1.35099769238123
366
1.35099769238123
379
1.35098810832949
363
1.35097852427775
384
1.35096894022601
356
1.35095935617426
349
1.35094977212252
371
1.35094018807078
408
1.35093060401904
367
1.3509210199673
337
1.35091143591555
348
1.35090185186381
359
1.35089226781207
370
1.35088268376033
375
1.35087309970859
390
1.35086351565684
359
1.3508539316051
376
1.35084434755336
376
1.35083476350162
343
1.35082517944988
360
1.35081559539813
361
1.35080601134639
359
1.35079642729465
366
1.35078684324291
350
1.35077725919117
380
1.35076767513942
375
1.35075809108768
361
1.35074850703594
360
1.3507389229842
353
1.35072933893246
371
1.35071975488071
357
1.35071017082897
363
1.35070058677723
371
1.35069100272549
356
1.35068141867375
362
1.350671834622
363
1.35066225057026
348
1.35065266651852
375
1.35064308246678
362
1.35063349841504
345
1.35062391436329
367
1.35061433031155
360
1.35060474625981
387
1.35059516220807
370
1.35058557815633
372
1.35057599410458
371
1.35056641005284
345
1.3505568260011
365
1.35054724194936
371
1.35053765789762
353
1.35052807384587
342
1.35051848979413
356
1.35050890574239
364
1.35049932169065
364
1.35048973763891
353
1.35048015358716
345
1.35047056953542
360
1.35046098548368
372
1.35045140143194
374
1.3504418173802
377
1.35043223332845
358
1.35042264927671
352
1.35041306522497
374
1.35040348117323
376
1.35039389712149
398
1.35038431306974
379
1.350374729018
361
1.35036514496626
372
1.35035556091452
389
1.35034597686278
359
1.35033639281103
376
1.35032680875929
377
1.35031722470755
364
1.35030764065581
352
1.35029805660407
383
1.35028847255232
360
1.35027888850058
341
1.35026930444884
373
1.3502597203971
369
1.35025013634536
365
1.35024055229361
381
1.35023096824187
365
1.35022138419013
356
1.35021180013839
372
1.35020221608665
376
1.3501926320349
369
1.35018304798316
380
1.35017346393142
376
1.35016387987968
397
1.35015429582794
358
1.35014471177619
365
1.35013512772445
347
1.35012554367271
342
1.35011595962097
362
1.35010637556923
363
1.35009679151748
381
1.35008720746574
386
1.350077623414
362
1.35006803936226
383
1.35005845531052
402
1.35004887125877
396
1.35003928720703
362
1.35002970315529
340
1.35002011910355
360
1.35001053505181
343
1.35000095100006
337
1.34999136694832
337
1.34998178289658
370
1.34997219884484
374
1.3499626147931
356
1.34995303074135
388
1.34994344668961
397
1.34993386263787
362
1.34992427858613
382
1.34991469453439
350
1.34990511048264
329
1.3498955264309
370
1.34988594237916
362
1.34987635832742
355
1.34986677427568
358
1.34985719022393
375
1.34984760617219
350
1.34983802212045
374
1.34982843806871
353
1.34981885401697
354
1.34980926996522
381
1.34979968591348
388
1.34979010186174
363
1.34978051781
384
1.34977093375826
357
1.34976134970651
334
1.34975176565477
Ti3s
HT CP 19 Ap
2023
5
9
19
57
45
2
41
Creation
Created by : XPSUser
Date created : 09/05/2023 19:57
Computer : DESKTOP-U3MGE2F
Location
Location ID : C1
Sample : HT CP 19 Ap
Description : (47.619,16.070,-0.852)mm
Tilt : 0.00
Charge Neutraliser : On
Filament Current : 0.53A
Filament Bias : 2.02V
Charge Balance : 5.02V
Settings
Excitation
Mode : XPS - monochromatic
Tuning : Spectroscopy
Emission current : 15.00mA
Anode library : Al
ESCA modes
Collimation : Slot
Lens : Hybrid
Resolution : 20.00
Scan
Deflection : (0.000, 0.000)mm
Ti3s : 1412.690-1442.690eV, Sweeps 5
Start : 1412.690eV
End : 1442.690eV
Centre : 1427.690eV
Width : 30.000eV
Step size : 0.100eV
Number Steps : 300
Dwell time : 199ms
Sweep time : 60s
Sweeps : 5
Target quality : 200
Instrument Conditions
Work function : -4.50
Acquisition Conditions
X-ray Power : 225.00W
Quality : 9.68
XPS
7
47.6185
16.0701171875
-0.852359375
Al (mono)
1486.69
225
1E+37
1E+37
1E+37
1E+37
FAT
20
1E+37
-4.5
1E+37
1E+37
1E+37
1E+37
1E+37
Ti3s

-1
Kinetic energy
eV
1412.69
0.1
2
Intensity
d
Transmission
d
pulse counting
0.199335548172757
5
0
1E+37
1E+37
1E+37
0
602
137
216
1.29494863949153
1.2965505499007
166
1.2965505499007
168
1.29654521019933
156
1.29653987049797
167
1.2965345307966
168
1.29652919109524
180
1.29652385139388
177
1.29651851169251
182
1.29651317199115
174
1.29650783228978
165
1.29650249258842
176
1.29649715288706
154
1.29649181318569
147
1.29648647348433
181
1.29648113378297
157
1.2964757940816
178
1.29647045438024
163
1.29646511467887
163
1.29645977497751
170
1.29645443527615
166
1.29644909557478
163
1.29644375587342
161
1.29643841617205
158
1.29643307647069
178
1.29642773676933
154
1.29642239706796
162
1.2964170573666
166
1.29641171766523
161
1.29640637796387
174
1.29640103826251
177
1.29639569856114
156
1.29639035885978
162
1.29638501915842
166
1.29637967945705
175
1.29637433975569
173
1.29636900005432
157
1.29636366035296
180
1.2963583206516
181
1.29635298095023
168
1.29634764124887
152
1.2963423015475
142
1.29633696184614
161
1.29633162214478
171
1.29632628244341
173
1.29632094274205
158
1.29631560304068
166
1.29631026333932
176
1.29630492363796
163
1.29629958393659
150
1.29629424423523
183
1.29628890453386
171
1.2962835648325
172
1.29627822513114
174
1.29627288542977
168
1.29626754572841
168
1.29626220602705
186
1.29625686632568
174
1.29625152662432
174
1.29624618692295
158
1.29624084722159
151
1.29623550752023
156
1.29623016781886
170
1.2962248281175
158
1.29621948841613
169
1.29621414871477
165
1.29620880901341
168
1.29620346931204
181
1.29619812961068
162
1.29619278990931
156
1.29618745020795
153
1.29618211050659
151
1.29617677080522
163
1.29617143110386
161
1.2961660914025
165
1.29616075170113
156
1.29615541199977
155
1.2961500722984
155
1.29614473259704
173
1.29613939289568
163
1.29613405319431
167
1.29612871349295
160
1.29612337379158
159
1.29611803409022
161
1.29611269438886
155
1.29610735468749
146
1.29610201498613
147
1.29609667528476
147
1.2960913355834
157
1.29608599588204
156
1.29608065618067
159
1.29607531647931
155
1.29606997677794
164
1.29606463707658
153
1.29605929737522
156
1.29605395767385
137
1.29604861797249
172
1.29604327827113
160
1.29603793856976
162
1.2960325988684
152
1.29602725916703
165
1.29602191946567
151
1.29601657976431
151
1.29601124006294
171
1.29600590036158
145
1.29600056066021
142
1.29599522095885
158
1.29598988125749
164
1.29598454155612
179
1.29597920185476
150
1.29597386215339
156
1.29596852245203
155
1.29596318275067
159
1.2959578430493
158
1.29595250334794
162
1.29594716364658
160
1.29594182394521
152
1.29593648424385
153
1.29593114454248
154
1.29592580484112
160
1.29592046513976
154
1.29591512543839
157
1.29590978573703
170
1.29590444603566
163
1.2958991063343
161
1.29589376663294
171
1.29588842693157
149
1.29588308723021
153
1.29587774752884
150
1.29587240782748
157
1.29586706812612
149
1.29586172842475
142
1.29585638872339
154
1.29585104902202
142
1.29584570932066
176
1.2958403696193
152
1.29583502991793
160
1.29582969021657
159
1.29582435051521
153
1.29581901081384
155
1.29581367111248
169
1.29580833141111
156
1.29580299170975
154
1.29579765200839
157
1.29579231230702
160
1.29578697260566
167
1.29578163290429
164
1.29577629320293
151
1.29577095350157
162
1.2957656138002
158
1.29576027409884
159
1.29575493439747
162
1.29574959469611
148
1.29574425499475
154
1.29573891529338
148
1.29573357559202
170
1.29572823589066
153
1.29572289618929
153
1.29571755648793
165
1.29571221678656
157
1.2957068770852
166
1.29570153738384
142
1.29569619768247
145
1.29569085798111
157
1.29568551827974
164
1.29568017857838
149
1.29567483887702
152
1.29566949917565
177
1.29566415947429
173
1.29565881977292
175
1.29565348007156
173
1.2956481403702
178
1.29564280066883
172
1.29563746096747
163
1.2956321212661
163
1.29562678156474
175
1.29562144186338
174
1.29561610216201
180
1.29561076246065
187
1.29560542275929
177
1.29560008305792
191
1.29559474335656
162
1.29558940365519
157
1.29558406395383
154
1.29557872425247
138
1.2955733845511
172
1.29556804484974
179
1.29556270514837
166
1.29555736544701
154
1.29555202574565
176
1.29554668604428
160
1.29554134634292
170
1.29553600664155
172
1.29553066694019
182
1.29552532723883
188
1.29551998753746
182
1.2955146478361
167
1.29550930813473
163
1.29550396843337
172
1.29549862873201
163
1.29549328903064
172
1.29548794932928
169
1.29548260962792
178
1.29547726992655
166
1.29547193022519
167
1.29546659052382
189
1.29546125082246
183
1.2954559111211
175
1.29545057141973
170
1.29544523171837
188
1.295439892017
169
1.29543455231564
159
1.29542921261428
161
1.29542387291291
172
1.29541853321155
176
1.29541319351018
170
1.29540785380882
191
1.29540251410746
166
1.29539717440609
171
1.29539183470473
180
1.29538649500337
185
1.295381155302
196
1.29537581560064
193
1.29537047589927
206
1.29536513619791
193
1.29535979649655
187
1.29535445679518
189
1.29534911709382
189
1.29534377739245
186
1.29533843769109
194
1.29533309798973
193
1.29532775828836
205
1.295322418587
196
1.29531707888563
200
1.29531173918427
202
1.29530639948291
187
1.29530105978154
179
1.29529572008018
180
1.29529038037881
182
1.29528504067745
194
1.29527970097609
209
1.29527436127472
176
1.29526902157336
176
1.295263681872
179
1.29525834217063
193
1.29525300246927
186
1.2952476627679
192
1.29524232306654
197
1.29523698336518
186
1.29523164366381
179
1.29522630396245
206
1.29522096426108
211
1.29521562455972
197
1.29521028485836
194
1.29520494515699
188
1.29519960545563
197
1.29519426575426
195
1.2951889260529
179
1.29518358635154
174
1.29517824665017
204
1.29517290694881
197
1.29516756724745
214
1.29516222754608
190
1.29515688784472
190
1.29515154814335
193
1.29514620844199
204
1.29514086874063
198
1.29513552903926
197
1.2951301893379
210
1.29512484963653
214
1.29511950993517
204
1.29511417023381
177
1.29510883053244
192
1.29510349083108
194
1.29509815112971
172
1.29509281142835
215
1.29508747172699
196
1.29508213202562
171
1.29507679232426
192
1.29507145262289
208
1.29506611292153
216
1.29506077322017
212
1.2950554335188
191
1.29505009381744
204
1.29504475411608
204
1.29503941441471
195
1.29503407471335
213
1.29502873501198
182
1.29502339531062
186
1.29501805560926
195
1.29501271590789
186
1.29500737620653
182
1.29500203650516
200
1.2949966968038
193
1.29499135710244
179
1.29498601740107
186
1.29498067769971
184
1.29497533799834
180
1.29496999829698
194
1.29496465859562
191
1.29495931889425
190
1.29495397919289
205
1.29494863949153
Ti3p
HT CP 19 Ap
2023
5
9
19
57
45
2
41
Creation
Created by : XPSUser
Date created : 09/05/2023 19:57
Computer : DESKTOP-U3MGE2F
Location
Location ID : C1
Sample : HT CP 19 Ap
Description : (47.619,16.070,-0.852)mm
Tilt : 0.00
Charge Neutraliser : On
Filament Current : 0.53A
Filament Bias : 2.02V
Charge Balance : 5.02V
Settings
Excitation
Mode : XPS - monochromatic
Tuning : Spectroscopy
Emission current : 15.00mA
Anode library : Al
ESCA modes
Collimation : Slot
Lens : Hybrid
Resolution : 20.00
Scan
Deflection : (0.000, 0.000)mm
Ti3p : 1437.690-1467.690eV, Sweeps 5
Start : 1437.690eV
End : 1467.690eV
Centre : 1452.690eV
Width : 30.000eV
Step size : 0.100eV
Number Steps : 300
Dwell time : 199ms
Sweep time : 60s
Sweeps : 5
Target quality : 200
Instrument Conditions
Work function : -4.50
Acquisition Conditions
X-ray Power : 225.00W
Quality : 25.33
XPS
8
47.6185
16.0701171875
-0.852359375
Al (mono)
1486.69
225
1E+37
1E+37
1E+37
1E+37
FAT
20
1E+37
-4.5
1E+37
1E+37
1E+37
1E+37
1E+37
Ti3p

-1
Kinetic energy
eV
1437.69
0.1
2
Intensity
d
Transmission
d
pulse counting
0.199335548172757
5
0
1E+37
1E+37
1E+37
0
602
117
331
1.29361371415055
1.29521562455972
179
1.29521562455972
181
1.29521028485836
181
1.29520494515699
200
1.29519960545563
198
1.29519426575426
182
1.2951889260529
181
1.29518358635154
161
1.29517824665017
177
1.29517290694881
191
1.29516756724745
185
1.29516222754608
176
1.29515688784472
202
1.29515154814335
190
1.29514620844199
188
1.29514086874063
194
1.29513552903926
189
1.2951301893379
189
1.29512484963653
202
1.29511950993517
191
1.29511417023381
192
1.29510883053244
207
1.29510349083108
187
1.29509815112971
200
1.29509281142835
208
1.29508747172699
206
1.29508213202562
192
1.29507679232426
184
1.29507145262289
191
1.29506611292153
194
1.29506077322017
196
1.2950554335188
185
1.29505009381744
183
1.29504475411608
190
1.29503941441471
188
1.29503407471335
193
1.29502873501198
184
1.29502339531062
211
1.29501805560926
195
1.29501271590789
183
1.29500737620653
189
1.29500203650516
215
1.2949966968038
195
1.29499135710244
190
1.29498601740107
196
1.29498067769971
198
1.29497533799834
193
1.29496999829698
193
1.29496465859562
195
1.29495931889425
193
1.29495397919289
219
1.29494863949153
179
1.29494329979016
204
1.2949379600888
201
1.29493262038743
221
1.29492728068607
208
1.29492194098471
200
1.29491660128334
191
1.29491126158198
182
1.29490592188061
192
1.29490058217925
193
1.29489524247789
196
1.29488990277652
165
1.29488456307516
183
1.29487922337379
194
1.29487388367243
179
1.29486854397107
171
1.2948632042697
176
1.29485786456834
175
1.29485252486697
164
1.29484718516561
169
1.29484184546425
189
1.29483650576288
187
1.29483116606152
179
1.29482582636016
180
1.29482048665879
182
1.29481514695743
171
1.29480980725606
188
1.2948044675547
195
1.29479912785334
189
1.29479378815197
180
1.29478844845061
171
1.29478310874924
198
1.29477776904788
185
1.29477242934652
161
1.29476708964515
170
1.29476174994379
202
1.29475641024242
184
1.29475107054106
173
1.2947457308397
189
1.29474039113833
168
1.29473505143697
144
1.29472971173561
148
1.29472437203424
170
1.29471903233288
186
1.29471369263151
177
1.29470835293015
168
1.29470301322879
175
1.29469767352742
181
1.29469233382606
175
1.29468699412469
180
1.29468165442333
166
1.29467631472197
169
1.2946709750206
166
1.29466563531924
162
1.29466029561787
152
1.29465495591651
175
1.29464961621515
151
1.29464427651378
155
1.29463893681242
176
1.29463359711105
167
1.29462825740969
165
1.29462291770833
152
1.29461757800696
156
1.2946122383056
167
1.29460689860424
166
1.29460155890287
148
1.29459621920151
158
1.29459087950014
152
1.29458553979878
171
1.29458020009742
164
1.29457486039605
153
1.29456952069469
148
1.29456418099332
155
1.29455884129196
135
1.2945535015906
161
1.29454816188923
152
1.29454282218787
158
1.2945374824865
151
1.29453214278514
169
1.29452680308378
151
1.29452146338241
154
1.29451612368105
128
1.29451078397968
144
1.29450544427832
148
1.29450010457696
154
1.29449476487559
162
1.29448942517423
147
1.29448408547287
147
1.2944787457715
148
1.29447340607014
141
1.29446806636877
147
1.29446272666741
157
1.29445738696605
153
1.29445204726468
140
1.29444670756332
145
1.29444136786195
144
1.29443602816059
144
1.29443068845923
137
1.29442534875786
135
1.2944200090565
118
1.29441466935513
133
1.29440932965377
142
1.29440398995241
135
1.29439865025104
131
1.29439331054968
135
1.29438797084832
153
1.29438263114695
146
1.29437729144559
138
1.29437195174422
128
1.29436661204286
129
1.2943612723415
130
1.29435593264013
130
1.29435059293877
146
1.2943452532374
133
1.29433991353604
123
1.29433457383468
136
1.29432923413331
141
1.29432389443195
131
1.29431855473058
120
1.29431321502922
127
1.29430787532786
127
1.29430253562649
144
1.29429719592513
149
1.29429185622377
139
1.2942865165224
145
1.29428117682104
141
1.29427583711967
154
1.29427049741831
131
1.29426515771695
120
1.29425981801558
138
1.29425447831422
140
1.29424913861285
126
1.29424379891149
124
1.29423845921013
139
1.29423311950876
147
1.2942277798074
137
1.29422244010603
142
1.29421710040467
134
1.29421176070331
143
1.29420642100194
139
1.29420108130058
144
1.29419574159921
135
1.29419040189785
136
1.29418506219649
146
1.29417972249512
133
1.29417438279376
117
1.2941690430924
127
1.29416370339103
146
1.29415836368967
148
1.2941530239883
152
1.29414768428694
131
1.29414234458558
122
1.29413700488421
153
1.29413166518285
149
1.29412632548148
131
1.29412098578012
147
1.29411564607876
148
1.29411030637739
154
1.29410496667603
144
1.29409962697466
152
1.2940942872733
147
1.29408894757194
158
1.29408360787057
166
1.29407826816921
139
1.29407292846784
151
1.29406758876648
156
1.29406224906512
163
1.29405690936375
146
1.29405156966239
169
1.29404622996103
156
1.29404089025966
156
1.2940355505583
157
1.29403021085693
161
1.29402487115557
169
1.29401953145421
152
1.29401419175284
179
1.29400885205148
179
1.29400351235011
173
1.29399817264875
180
1.29399283294739
161
1.29398749324602
170
1.29398215354466
171
1.29397681384329
162
1.29397147414193
168
1.29396613444057
173
1.2939607947392
181
1.29395545503784
164
1.29395011533648
191
1.29394477563511
185
1.29393943593375
188
1.29393409623238
179
1.29392875653102
184
1.29392341682966
192
1.29391807712829
177
1.29391273742693
186
1.29390739772556
199
1.2939020580242
202
1.29389671832284
186
1.29389137862147
199
1.29388603892011
199
1.29388069921874
176
1.29387535951738
202
1.29387001981602
198
1.29386468011465
191
1.29385934041329
186
1.29385400071192
190
1.29384866101056
175
1.2938433213092
187
1.29383798160783
184
1.29383264190647
186
1.29382730220511
195
1.29382196250374
222
1.29381662280238
203
1.29381128310101
213
1.29380594339965
234
1.29380060369829
210
1.29379526399692
203
1.29378992429556
205
1.29378458459419
218
1.29377924489283
223
1.29377390519147
228
1.2937685654901
219
1.29376322578874
256
1.29375788608737
264
1.29375254638601
242
1.29374720668465
253
1.29374186698328
259
1.29373652728192
286
1.29373118758056
265
1.29372584787919
288
1.29372050817783
271
1.29371516847646
270
1.2937098287751
294
1.29370448907374
301
1.29369914937237
314
1.29369380967101
316
1.29368846996964
299
1.29368313026828
296
1.29367779056692
325
1.29367245086555
309
1.29366711116419
306
1.29366177146282
301
1.29365643176146
300
1.2936510920601
308
1.29364575235873
309
1.29364041265737
327
1.293635072956
327
1.29362973325464
330
1.29362439355328
328
1.29361905385191
331
1.29361371415055
Ti2s
HT CP 19 Ap
2023
5
9
19
57
45
2
41
Creation
Created by : XPSUser
Date created : 09/05/2023 19:57
Computer : DESKTOP-U3MGE2F
Location
Location ID : C1
Sample : HT CP 19 Ap
Description : (47.619,16.070,-0.852)mm
Tilt : 0.00
Charge Neutraliser : On
Filament Current : 0.53A
Filament Bias : 2.02V
Charge Balance : 5.02V
Settings
Excitation
Mode : XPS - monochromatic
Tuning : Spectroscopy
Emission current : 15.00mA
Anode library : Al
ESCA modes
Collimation : Slot
Lens : Hybrid
Resolution : 20.00
Scan
Deflection : (0.000, 0.000)mm
Ti2s : 907.690-937.690eV, Sweeps 10
Start : 907.690eV
End : 937.690eV
Centre : 922.690eV
Width : 30.000eV
Step size : 0.100eV
Number Steps : 300
Dwell time : 199ms
Sweep time : 60s
Sweeps : 10
Target quality : 200
Instrument Conditions
Work function : -4.50
Acquisition Conditions
X-ray Power : 225.00W
Quality : 9.91
XPS
9
47.6185
16.0701171875
-0.852359375
Al (mono)
1486.69
225
1E+37
1E+37
1E+37
1E+37
FAT
20
1E+37
-4.5
1E+37
1E+37
1E+37
1E+37
1E+37
Ti2s

-1
Kinetic energy
eV
907.69
0.1
2
Intensity
d
Transmission
d
pulse counting
0.199335548172757
10
0
1E+37
1E+37
1E+37
0
602
8245
8818
1.39835656853096
1.40786093570082
8479
1.40786093570082
8539
1.40783040092986
8583
1.40779986615891
8573
1.40776933138795
8651
1.40773879661699
8698
1.40770826184604
8497
1.40767772707508
8549
1.40764719230412
8538
1.40761665753316
8425
1.40758612276221
8476
1.40755558799125
8506
1.40752505322029
8524
1.40749451844934
8427
1.40746398367838
8438
1.40743344890742
8555
1.40740291413646
8456
1.40737237936551
8456
1.40734184459455
8481
1.40731130982359
8454
1.40728077505264
8523
1.40725024028168
8606
1.40721970551072
8460
1.40718917073976
8457
1.40715863596881
8537
1.40712698331307
8612
1.40709520644792
8468
1.40706342958277
8447
1.40703165271762
8450
1.40699987585246
8473
1.40696809898731
8534
1.40693632212216
8471
1.40690454525701
8580
1.40687276839185
8436
1.4068409915267
8463
1.40680921466155
8533
1.4067774377964
8552
1.40674566093124
8508
1.40671388406609
8498
1.40668210720094
8591
1.40665033033579
8517
1.40661855347063
8410
1.40658677660548
8560
1.40655499974033
8447
1.40652322287517
8511
1.40649144601002
8481
1.40645966914487
8423
1.40642789227972
8525
1.40639611541456
8541
1.40636433854941
8245
1.40633256168426
8459
1.40630078481911
8478
1.40626900795395
8574
1.4062372310888
8500
1.40620545422365
8526
1.4061736773585
8607
1.40614190049334
8472
1.40611012362819
8557
1.40607834676304
8687
1.40604656989789
8520
1.40601479303273
8608
1.40598301616758
8566
1.40595123930243
8529
1.40591946243728
8561
1.40588768557212
8544
1.40585590870697
8597
1.40582413184182
8456
1.40579235497667
8466
1.40576057811151
8512
1.40572880124636
8558
1.40569702438121
8656
1.40566524751605
8496
1.4056334706509
8492
1.40560169378575
8534
1.4055699169206
8622
1.40553814005544
8483
1.40550636319029
8457
1.40547458632514
8472
1.40544280945999
8633
1.40541103259483
8506
1.40537925572968
8630
1.40534747886453
8568
1.40531570199938
8522
1.40528392513422
8536
1.40525214826907
8471
1.40522037140392
8461
1.40518859453877
8496
1.40515681767361
8555
1.40512504080846
8600
1.40509326394331
8487
1.40506148707816
8521
1.405029710213
8583
1.40499793334785
8579
1.4049661564827
8593
1.40493437961755
8526
1.40490260275239
8625
1.40487082588724
8670
1.40483904902209
8539
1.40480727215694
8567
1.40477549529178
8505
1.40474371842663
8414
1.40471194156148
8493
1.40468016469632
8521
1.40464838783117
8577
1.40461661096602
8475
1.40458483410087
8537
1.40455305723571
8541
1.40452128037056
8574
1.40448950350541
8703
1.40445772664026
8428
1.4044259497751
8540
1.40439417290995
8497
1.4043623960448
8566
1.40433061917965
8687
1.40429884231449
8362
1.40426706544934
8383
1.40423528858419
8470
1.40420351171904
8528
1.40417173485388
8488
1.40413995798873
8516
1.40410818112358
8458
1.40407640425843
8466
1.40404462739327
8597
1.40401285052812
8604
1.40398107366297
8519
1.40394929679782
8439
1.40391751993266
8551
1.40388574306751
8567
1.40385396620236
8638
1.40382218933721
8573
1.40379041247205
8477
1.4037586356069
8438
1.40372685874175
8554
1.40369508187659
8442
1.40366330501144
8563
1.40363152814629
8718
1.40359975128114
8651
1.40356797441598
8593
1.40353619755083
8563
1.40350442068568
8469
1.40347264382053
8408
1.40344086695537
8512
1.40340909009022
8484
1.40337731322507
8465
1.40334553635992
8568
1.40331375949476
8541
1.40328198262961
8651
1.40325020576446
8617
1.40321842889931
8447
1.40318665203415
8417
1.403154875169
8700
1.40312309830385
8666
1.4030913214387
8547
1.40305954457354
8632
1.40302776770839
8651
1.40299599084324
8584
1.40296421397809
8651
1.40293243711293
8589
1.40290066024778
8526
1.40286888338263
8581
1.40283710651747
8565
1.40280532965232
8470
1.40277355278717
8478
1.40274177592202
8564
1.40270999905686
8564
1.40267822219171
8584
1.40264644532656
8703
1.40261466846141
8578
1.40258289159625
8464
1.4025511147311
8762
1.40251933786595
8546
1.4024875610008
8515
1.40245578413564
8614
1.40242400727049
8700
1.40239223040534
8612
1.40236045354019
8584
1.40232867667503
8561
1.40229689980988
8720
1.40226512294473
8818
1.40223334607958
8763
1.40220156921442
8741
1.40216979234927
8575
1.40213801548412
8591
1.40210623861897
8613
1.40207446175381
8690
1.40204268488866
8691
1.40201090802351
8692
1.40197913115836
8663
1.4019473542932
8636
1.40191557742805
8563
1.4018838005629
8587
1.40185202369774
8718
1.40182024683259
8784
1.40178846996744
8613
1.40175669310229
8580
1.40172491623713
8508
1.40169313937198
8685
1.40166136250683
8720
1.40162958564168
8755
1.40159780877652
8806
1.40156603191137
8607
1.40153425504622
8695
1.40150247818107
8654
1.40147070131591
8630
1.40143892445076
8614
1.40140714758561
8585
1.40137537072046
8597
1.4013435938553
8636
1.40131181699015
8719
1.401280040125
8608
1.40124826325985
8682
1.40121648639469
8655
1.40118470952954
8491
1.40115293266439
8660
1.40112115579924
8697
1.40108937893408
8704
1.40105760206893
8611
1.40102582520378
8640
1.40099404833863
8650
1.40096227147347
8724
1.40093049460832
8684
1.40089871774317
8620
1.40086694087801
8555
1.40083516401286
8508
1.40080338714771
8568
1.40077161028256
8643
1.4007398334174
8688
1.40070805655225
8581
1.4006762796871
8564
1.40064450282195
8683
1.40061272595679
8696
1.40058094909164
8700
1.40054917222649
8617
1.40051739536134
8633
1.40048561849618
8544
1.40045384163103
8636
1.40042206476588
8706
1.40039028790073
8700
1.40035851103557
8815
1.40032673417042
8599
1.40029495730527
8583
1.40026318044012
8751
1.40023140357496
8706
1.40019962670981
8575
1.40016784984466
8616
1.40013607297951
8600
1.40010429611435
8528
1.4000725192492
8617
1.40004074238405
8603
1.40000896551889
8728
1.39997718865374
8671
1.39994541178859
8618
1.39991363492344
8539
1.39988185805828
8637
1.39985008119313
8638
1.39981830432798
8526
1.39978652746283
8598
1.39975475059767
8492
1.39972297373252
8556
1.39969119686737
8701
1.39965942000222
8745
1.39962764313706
8661
1.39959586627191
8579
1.39956408940676
8608
1.39953231254161
8529
1.39950053567645
8556
1.3994687588113
8500
1.39943698194615
8680
1.399405205081
8747
1.39937342821584
8774
1.39934165135069
8592
1.39930987448554
8596
1.39927809762039
8520
1.39924632075523
8561
1.39921454389008
8601
1.39918276702493
8609
1.39915099015978
8694
1.39911921329462
8609
1.39908743642947
8602
1.39905565956432
8614
1.39902388269916
8665
1.39899210583401
8676
1.39896032896886
8650
1.39892855210371
8640
1.39889677523855
8565
1.3988649983734
8478
1.39883322150825
8600
1.3988014446431
8611
1.39876966777794
8521
1.39873789091279
8510
1.39870611404764
8435
1.39867433718249
8567
1.39864256031733
8560
1.39861078345218
8652
1.39857900658703
8520
1.39854722972188
8521
1.39851545285672
8539
1.39848367599157
8754
1.39845189912642
8661
1.39842012226127
8450
1.39838834539611
8593
1.39835656853096
Ti2p
HT CP 19 Ap
2023
5
9
19
57
45
2
41
Creation
Created by : XPSUser
Date created : 09/05/2023 19:57
Computer : DESKTOP-U3MGE2F
Location
Location ID : C1
Sample : HT CP 19 Ap
Description : (47.619,16.070,-0.852)mm
Tilt : 0.00
Charge Neutraliser : On
Filament Current : 0.53A
Filament Bias : 2.02V
Charge Balance : 5.02V
Settings
Excitation
Mode : XPS - monochromatic
Tuning : Spectroscopy
Emission current : 15.00mA
Anode library : Al
ESCA modes
Collimation : Slot
Lens : Hybrid
Resolution : 20.00
Scan
Deflection : (0.000, 0.000)mm
Ti2p : 1016.690-1036.690eV, Sweeps 10
Start : 1016.690eV
End : 1036.690eV
Centre : 1026.690eV
Width : 20.000eV
Step size : 0.100eV
Number Steps : 200
Dwell time : 299ms
Sweep time : 60s
Sweeps : 10
Target quality : 200
Instrument Conditions
Work function : -4.50
Acquisition Conditions
X-ray Power : 225.00W
Quality : 6.36
XPS
10
47.6185
16.0701171875
-0.852359375
Al (mono)
1486.69
225
1E+37
1E+37
1E+37
1E+37
FAT
20
1E+37
-4.5
1E+37
1E+37
1E+37
1E+37
1E+37
Ti2p

-1
Kinetic energy
eV
1016.69
0.1
2
Intensity
d
Transmission
d
pulse counting
0.298507462686567
10
0
1E+37
1E+37
1E+37
0
402
12489
12982
1.34818394035546
1.35812104677082
12600
1.35812104677082
12668
1.35807136123875
12829
1.35802167570667
12820
1.35797199017459
12742
1.35792230464252
12697
1.35787261911044
12700
1.35782293357836
12489
1.35777324804629
12679
1.35772356251421
12755
1.35767387698213
12590
1.35762419145005
12865
1.35757450591798
12771
1.3575248203859
12559
1.35747513485382
12749
1.35742544932175
12752
1.35737576378967
12860
1.35732607825759
12724
1.35727639272552
12712
1.35722670719344
12800
1.35717702166136
12673
1.35712733612929
12571
1.35707765059721
12796
1.35702796506513
12683
1.35697827953306
12568
1.35692859400098
12728
1.3568789084689
12724
1.35682922293683
12561
1.35677953740475
12714
1.35672985187267
12699
1.3566801663406
12634
1.35663048080852
12867
1.35658079527644
12790
1.35653110974437
12598
1.35648142421229
12821
1.35643173868021
12746
1.35638205314813
12632
1.35633236761606
12874
1.35628268208398
12917
1.3562329965519
12844
1.35618331101983
12831
1.35613362548775
12635
1.35608393995567
12627
1.3560342544236
12803
1.35598456889152
12979
1.35593488335944
12825
1.35588519782737
12722
1.35583551229529
12840
1.35578582676321
12779
1.35573614123114
12621
1.35568645569906
12770
1.35563677016698
12820
1.35558708463491
12741
1.35553739910283
12700
1.35548771357075
12814
1.35543802803868
12717
1.3553883425066
12734
1.35533865697452
12643
1.35528897144245
12748
1.35523928591037
12757
1.35518960037829
12709
1.35513991484622
12584
1.35509022931414
12731
1.35504054378206
12838
1.35499085824998
12827
1.35494117271791
12850
1.35489148718583
12839
1.35484180165375
12753
1.35479211612168
12722
1.3547424305896
12787
1.35469274505752
12764
1.35464305952545
12752
1.35459337399337
12798
1.35454368846129
12721
1.35449400292922
12884
1.35444431739714
12645
1.35439463186506
12804
1.35434494633299
12776
1.35429526080091
12909
1.35424557526883
12712
1.35419588973676
12717
1.35414620420468
12520
1.3540965186726
12820
1.35404683314053
12892
1.35399714760845
12744
1.35394746207637
12819
1.3538977765443
12851
1.35384809101222
12758
1.35379840548014
12714
1.35374871994806
12888
1.35369903441599
12866
1.35364934888391
12901
1.35359966335183
12836
1.35354997781976
12659
1.35350029228768
12830
1.3534506067556
12762
1.35340092122353
12774
1.35335123569145
12831
1.35330155015937
12770
1.3532518646273
12840
1.35320217909522
12857
1.35315249356314
12902
1.35310280803107
12752
1.35305312249899
12851
1.35300343696691
12619
1.35295375143484
12791
1.35290406590276
12728
1.35285438037068
12803
1.35280469483861
12871
1.35275500930653
12902
1.35270532377445
12682
1.35265563824238
12689
1.3526059527103
12786
1.35255626717822
12752
1.35250658164615
12641
1.35245689611407
12571
1.35240721058199
12635
1.35235752504991
12720
1.35230783951784
12840
1.35225815398576
12695
1.35220846845368
12775
1.35215878292161
12764
1.35210909738953
12770
1.35205941185745
12576
1.35200972632538
12614
1.3519600407933
12844
1.35191035526122
12684
1.35186066972915
12693
1.35181098419707
12718
1.35176129866499
12706
1.35171161313292
12656
1.35166192760084
12809
1.35161224206876
12910
1.35156255653669
12860
1.35151287100461
12839
1.35146318547253
12877
1.35141349994046
12862
1.35136381440838
12846
1.3513141288763
12690
1.35126444334423
12960
1.35121475781215
12725
1.35116507228007
12642
1.35111538674799
12730
1.35106570121592
12693
1.35101601568384
12802
1.35096633015176
12798
1.35091664461969
12825
1.35086695908761
12850
1.35081727355553
12837
1.35076758802346
12876
1.35071790249138
12942
1.3506682169593
12977
1.35061853142723
12798
1.35056884589515
12805
1.35051916036307
12906
1.350469474831
12930
1.35041978929892
12866
1.35037010376684
12750
1.35032041823477
12790
1.35027073270269
12803
1.35022104717061
12894
1.35017136163854
12967
1.35012167610646
12766
1.35007199057438
12771
1.35002230504231
12854
1.34997261951023
12827
1.34992293397815
12856
1.34987324844607
12698
1.349823562914
12741
1.34977387738192
12810
1.34972419184984
12657
1.34967450631777
12783
1.34962482078569
12982
1.34957513525361
12917
1.34952544972154
12792
1.34947576418946
12888
1.34942607865738
12853
1.34937639312531
12867
1.34932670759323
12833
1.34927702206115
12745
1.34922733652908
12826
1.349177650997
12699
1.34912796546492
12729
1.34907827993285
12793
1.34902859440077
12853
1.34897890886869
12824
1.34892922333662
12668
1.34887953780454
12954
1.34882985227246
12927
1.34878016674039
12819
1.34873048120831
12792
1.34868079567623
12813
1.34863111014416
12696
1.34858142461208
12666
1.34853173908
12888
1.34848205354792
12963
1.34843236801585
12819
1.34838268248377
12829
1.34833299695169
12909
1.34828331141962
12759
1.34823362588754
12912
1.34818394035546
end of experiment
