VAMAS Surface Chemical Analysis Standard Data Transfer Format 1988 May 4
Not specified
MI-600-BE9240AA
XPSUser
KTH Amireza_C-paper-Mxene-sample sent on 17 April2023.experiment
0
NORM
REGULAR
1
4
Index
d
PositionX [mm]
n
PositionY [mm]
n
PositionZ [mm]
n
0
0
0
0
10
wide
MX-HT 0p5 20Ap
2023
5
9
14
2
1
2
39
Creation
Created by : XPSUser
Date created : 09/05/2023 14:02
Computer : DESKTOP-U3MGE2F
Location
Location ID : H1
Sample : MX-HT 0p5 20Ap
Description : (24.612,15.667,-0.853)mm
Tilt : 0.00
Charge Neutraliser : On
Filament Current : 0.53A
Filament Bias : 2.02V
Charge Balance : 5.02V
Settings
Excitation
Mode : XPS - monochromatic
Tuning : Spectroscopy
Emission current : 15.00mA
Anode library : Al
ESCA modes
Collimation : Slot
Lens : Hybrid
Resolution : 160.00
Scan
Deflection : (0.000, 0.000)mm
wide : 286.690-1491.690eV, Sweeps 5
Start : 286.690eV
End : 1491.690eV
Centre : 889.190eV
Width : 1205.000eV
Step size : 1.000eV
Number Steps : 1205
Dwell time : 100ms
Sweep time : 120s
Sweeps : 5
Instrument Conditions
Work function : -4.50
Acquisition Conditions
X-ray Power : 225.00W
XPS
1
24.612
15.6667890625
-0.85346875
Al (mono)
1486.69
225
1E+37
1E+37
1E+37
1E+37
FAT
160
1E+37
-4.5
1E+37
1E+37
1E+37
1E+37
1E+37
wide

-1
Kinetic energy
eV
286.69
1
2
Intensity
d
Transmission
d
pulse counting
0.0995024875621891
5
0
1E+37
1E+37
1E+37
0
2412
7
140487
31.1899525550317
34.3842158080476
85947
31.3831160809299
86288
31.3957804233785
85804
31.4084447658271
86149
31.4211091082757
86656
31.4337734507243
86984
31.4464377931729
87147
31.4591021356215
87249
31.4717664780701
87393
31.4844308205187
87266
31.4970951629673
88074
31.5097595054159
88401
31.5224238478645
88360
31.5350881903131
88471
31.5477525327617
88906
31.5604168752103
89168
31.5730812176589
89255
31.5857455601075
89607
31.5984099025561
89747
31.6110742450047
90184
31.6237385874533
90388
31.6364029299019
90335
31.6490672723505
90923
31.6617316147991
91098
31.6743959572477
91681
31.6831677063262
91317
31.6901906091079
91718
31.6972135118896
92196
31.7042364146713
92611
31.711259317453
92527
31.7182822202348
92579
31.7253051230165
93007
31.7323280257982
93439
31.7393509285799
93772
31.7463738313616
94211
31.7533967341433
94147
31.760419636925
94402
31.7674425397068
95377
31.7744654424885
95112
31.7814883452702
95258
31.7885112480519
95850
31.7955341508336
96634
31.8025570536153
97222
31.809579956397
97579
31.8166028591787
97774
31.8236257619605
98272
31.8306486647422
98930
31.8376715675239
98763
31.8446944703056
98369
31.8517173730873
99154
31.858740275869
98493
31.8657631786507
98597
31.8727860814324
99018
31.8798089842142
99114
31.8868318869959
99422
31.8938547897776
99192
31.9008776925593
98863
31.907900595341
98826
31.9149234981227
99468
31.9219464009044
99909
31.9289693036862
100322
31.9359922064679
100921
31.9430151092496
101325
31.9500380120313
101783
31.957060914813
103012
31.9640838175947
104131
31.9711067203764
105498
31.9781296231581
106309
31.9851525259399
106973
31.9921754287216
107015
31.9991983315033
106464
32.006221234285
106255
32.0132441370667
106625
32.0202670398484
106689
32.0272899426301
107118
32.032304243533
108282
32.0364161290989
108898
32.0405280146649
108990
32.0446399002308
108248
32.0487517857968
107566
32.0528636713627
106524
32.0569755569286
105803
32.0610874424946
105940
32.0651993280605
106012
32.0693112136265
106555
32.0734230991924
107005
32.0775349847584
107719
32.0816468703243
109328
32.0857587558902
110736
32.0898706414562
112235
32.0939825270221
113614
32.0980944125881
115805
32.102206298154
118504
32.10631818372
120938
32.1104300692859
123376
32.1145419548519
126839
32.1186538404178
128967
32.1227657259837
127696
32.1268776115497
124132
32.1309894971156
120791
32.1351013826816
119163
32.1392132682475
117511
32.1433251538135
111456
32.1474370393794
101529
32.1515489249454
93116
32.1556608105113
88061
32.1597726960772
85155
32.1638845816432
82757
32.1679964672091
81258
32.1721083527751
80163
32.176220238341
78660
32.180332123907
77364
32.1844440094729
76905
32.1885558950389
76440
32.1926677806048
75752
32.1967796661707
75318
32.2008915517367
75384
32.2050034373026
75436
32.2091153228686
75371
32.2132272084345
75711
32.2173390940005
76405
32.2214509795664
76412
32.2255628651324
77277
32.2296747506983
78462
32.2337866362642
79636
32.2385797052662
80111
32.2436788132032
81874
32.2487779211402
83743
32.2538770290771
86312
32.2589761370141
89231
32.2640752449511
91467
32.2691743528881
92432
32.274273460825
91175
32.279372568762
88926
32.284471676699
86533
32.289570784636
82495
32.2946698925729
76087
32.2997690005099
71637
32.3048681084469
69493
32.3099672163839
68238
32.3150663243208
67250
32.3201654322578
66667
32.3252645401948
66292
32.3303636481318
65779
32.3354627560687
65586
32.3405618640057
65404
32.3456609719427
65558
32.3507600798797
65540
32.3558591878166
66004
32.3609582957536
65750
32.3660574036906
65281
32.3711565116276
65427
32.3762556195646
66002
32.3813547275015
65907
32.3864538354385
66178
32.3915529433755
66561
32.3966520513125
66514
32.4017511592494
67202
32.4068502671864
67017
32.4119493751234
67222
32.4170484830604
67608
32.4221475909973
68042
32.4272466989343
68419
32.4323458068713
68612
32.4374449148083
68916
32.4425440227452
69068
32.4476431306822
68299
32.4527422386192
67534
32.4578413465562
67404
32.4629404544931
66764
32.4680395624301
66658
32.4731386703671
66766
32.4782377783041
66470
32.483336886241
66795
32.488435994178
66707
32.494755001628
66929
32.5016220798738
66743
32.5084891581195
66588
32.5153562363652
66626
32.522223314611
67264
32.5290903928567
67223
32.5359574711024
66931
32.5428245493482
67354
32.5496916275939
67579
32.5565587058396
67475
32.5634257840853
67853
32.5702928623311
67767
32.5771599405768
67405
32.5840270188225
67476
32.5908940970683
67877
32.597761175314
68229
32.6046282535597
68393
32.6114953318055
68714
32.6183624100512
68520
32.6252294882969
68633
32.6320965665427
68818
32.6389636447884
68945
32.6458307230341
68959
32.6526978012798
69435
32.6595648795256
69509
32.6664319577713
69719
32.673299036017
69731
32.6801661142628
70370
32.6870331925085
71006
32.6939002707542
71573
32.700767349
71966
32.7076344272457
72534
32.7145015054914
72566
32.7213685837372
72642
32.7282356619829
72023
32.7351027402286
71219
32.7419698184744
69941
32.7488368967201
69882
32.7557039749658
70098
32.7625710532116
69848
32.7694381314573
69469
32.776305209703
69288
32.7831722879487
69193
32.7900393661945
69599
32.7969064444402
69994
32.8037735226859
71023
32.8106406009317
72502
32.8175076791774
74235
32.8243747574231
76376
32.8312418356689
78753
32.8365010348683
80859
32.8410378536267
81786
32.8455746723852
82637
32.8501114911436
82970
32.854648309902
79711
32.8591851286604
73353
32.8637219474188
69311
32.8682587661772
67241
32.8727955849356
65939
32.877332403694
64712
32.8818692224524
64185
32.8864060412108
63666
32.8909428599692
63130
32.8954796787276
62660
32.900016497486
62442
32.9045533162444
62335
32.9090901350029
61902
32.9136269537613
62028
32.9181637725197
62048
32.9227005912781
61975
32.9272374100365
62230
32.9317742287949
62270
32.9363110475533
62342
32.9408478663117
62316
32.9453846850701
62387
32.9499215038285
62409
32.9544583225869
62512
32.9589951413453
62676
32.9635319601037
62307
32.9680687788622
62641
32.9726055976206
62940
32.977142416379
63071
32.9816792351374
62852
32.9862160538958
63365
32.9907528726542
63197
32.9952896914126
62892
32.999826510171
63766
33.0043633289294
63771
33.0089001476878
63351
33.0134369664462
63607
33.0179737852046
63840
33.022510603963
63658
33.0270474227215
63673
33.0315842414799
64367
33.0361210602383
64226
33.0406578789967
63903
33.0451946977551
64186
33.0497315165135
64370
33.0542683352719
64544
33.0588051540303
64853
33.0651513369735
64812
33.0723104226664
64676
33.0794695083592
64766
33.0866285940521
65154
33.093787679745
65071
33.1009467654379
65238
33.1081058511307
65205
33.1152649368236
65305
33.1224240225165
65276
33.1295831082094
65104
33.1367421939023
65713
33.1439012795951
65877
33.151060365288
65825
33.1582194509809
65855
33.1653785366737
66006
33.1725376223666
65751
33.1796967080595
65770
33.1868557937524
66063
33.1940148794453
66548
33.2011739651381
66267
33.208333050831
66547
33.2154921365239
66759
33.2226512222168
66810
33.2298103079096
67053
33.2369693936025
66896
33.2441284792954
67093
33.2512875649883
67020
33.2584466506811
66851
33.265605736374
67084
33.2727648220669
67315
33.2799239077598
67757
33.2870829934526
67550
33.2942420791455
67431
33.3014011648384
67570
33.3085602505313
67830
33.3157193362241
68062
33.322878421917
67705
33.3300375076099
68129
33.3371965933028
68041
33.3443556789956
68697
33.3515147646885
68872
33.3586738503814
68542
33.3658329360743
69146
33.3729920217671
69288
33.38015110746
69603
33.3873101931529
69638
33.3944692788458
69952
33.4016283645386
70230
33.4087874502315
69675
33.4159465359244
70568
33.4215617399715
70921
33.4264833160328
70612
33.4314048920942
70869
33.4363264681555
70715
33.4412480442168
70331
33.4461696202781
70209
33.4510911963395
69853
33.4560127724008
70040
33.4609343484621
69867
33.4658559245234
70071
33.4707775005848
70292
33.4756990766461
70022
33.4806206527074
70856
33.4855422287687
71184
33.4904638048301
71402
33.4953853808914
71525
33.5003069569527
72349
33.505228533014
72650
33.5101501090754
73202
33.5150716851367
74160
33.519993261198
75408
33.5249148372594
76044
33.5298364133207
75502
33.534757989382
73923
33.5396795654433
71967
33.5446011415047
71645
33.549522717566
71775
33.5544442936273
71830
33.5593658696886
72119
33.56428744575
72697
33.5692090218113
72623
33.5741305978726
72033
33.5790521739339
71417
33.5839737499953
70955
33.5888953260566
71321
33.5938169021179
71476
33.5987384781792
72145
33.6036600542406
71857
33.6085816303019
72261
33.6135032063632
73417
33.6184247824245
74440
33.6233463584859
75750
33.6282679345472
76617
33.6331895106085
77370
33.6381110866699
78667
33.6430326627312
81523
33.6479542387925
84790
33.6528758148538
91100
33.6577973909152
91123
33.6627189669765
80133
33.6645745904842
71740
33.6650527570474
69725
33.6655309236107
69015
33.666009090174
68928
33.6664872567373
68731
33.6669654233006
68762
33.6674435898639
68573
33.6679217564272
68664
33.6683999229904
68561
33.6688780895537
69517
33.669356256117
69385
33.6698344226803
69226
33.6703125892436
69511
33.6707907558069
69472
33.6712689223702
69408
33.6717470889334
68728
33.6722252554967
69037
33.67270342206
69084
33.6731815886233
68707
33.6736597551866
69007
33.6741379217499
68910
33.6746160883132
69332
33.6750942548764
69157
33.6755724214397
69325
33.676050588003
69161
33.6765287545663
69530
33.6770069211296
70019
33.6774850876929
70008
33.6779632542562
69957
33.6784414208194
69871
33.6789195873827
69971
33.679397753946
70322
33.6798759205093
70891
33.6803540870726
70645
33.6808322536359
70483
33.6813104201992
70432
33.6817885867624
70881
33.6822667533257
70943
33.682744919889
71004
33.6832230864523
70705
33.682417625678
70609
33.6810354627665
71077
33.679653299855
71089
33.6782711369435
71584
33.676888974032
71158
33.6755068111205
71406
33.674124648209
71802
33.6727424852975
71425
33.671360322386
71692
33.6699781594745
71809
33.668595996563
71892
33.6672138336515
72093
33.6658316707399
72139
33.6644495078284
72050
33.6630673449169
72289
33.6616851820054
72069
33.6603030190939
72344
33.6589208561824
72443
33.6575386932709
72627
33.6561565303594
73178
33.6547743674479
73422
33.6533922045364
73345
33.6520100416249
73245
33.6506278787134
73287
33.6492457158019
73242
33.6478635528904
73495
33.6464813899789
73743
33.6450992270674
73629
33.6437170641559
73725
33.6423349012444
73986
33.6409527383329
74029
33.6395705754214
73663
33.6381884125099
74056
33.6368062495984
74386
33.6354240866869
74482
33.6340419237754
74337
33.6326597608639
74662
33.6312775979524
74616
33.6298954350409
74129
33.6285132721294
74686
33.6271311092179
74699
33.6257489463064
74810
33.6243667833949
74946
33.6229846204834
75315
33.6216024575719
75557
33.6202202946604
75307
33.6188381317489
75565
33.6174559688374
75813
33.6160738059259
76269
33.6146916430143
76014
33.6133094801028
76051
33.6119273171913
76331
33.6105451542798
76315
33.6091629913683
76441
33.6077808284568
76510
33.6063986655453
76271
33.6050165026338
76094
33.6036343397223
76542
33.6022521768108
76298
33.6008700138993
76153
33.6049684028743
76245
33.6115290687839
75951
33.6180897346934
76463
33.6246504006029
76631
33.6312110665124
76573
33.637771732422
76504
33.6443323983315
77472
33.650893064241
77298
33.6574537301505
77508
33.6640143960601
77775
33.6705750619696
77670
33.6771357278791
78416
33.6836963937887
78634
33.6902570596982
78695
33.6968177256077
78797
33.7033783915172
79986
33.7099390574268
79394
33.7164997233363
79822
33.7230603892458
79558
33.7296210551553
79437
33.7361817210649
78811
33.7427423869744
78717
33.7493030528839
78313
33.7558637187934
78285
33.762424384703
78140
33.7689850506125
77906
33.775545716522
77987
33.7821063824316
77828
33.7886670483411
77947
33.7952277142506
77961
33.8017883801601
77904
33.8083490460697
78378
33.8149097119792
78824
33.8214703778887
78633
33.8280310437982
78738
33.8345917097078
79239
33.8411523756173
80027
33.8477130415268
81518
33.8542737074363
85314
33.8608343733459
93991
33.8673950392554
113503
33.8739557051649
114398
33.8805163710744
92625
33.887077036984
79949
33.8936377028935
77245
33.900198368803
76125
33.9067590347126
76282
33.9133197006221
76554
33.9198803665316
76806
33.9264410324411
77064
33.9270445296009
76511
33.9249716176123
76661
33.9228987056237
77025
33.920825793635
77026
33.9187528816464
76973
33.9166799696578
77101
33.9146070576691
77410
33.9125341456805
77369
33.9104612336919
77119
33.9083883217032
77393
33.9063154097146
77321
33.904242497726
77991
33.9021695857373
77676
33.9000966737487
77841
33.8980237617601
77967
33.8959508497714
78167
33.8938779377828
78239
33.8918050257942
78424
33.8897321138055
78649
33.8876592018169
78651
33.8855862898283
78438
33.8835133778396
78970
33.881440465851
79222
33.8793675538624
78973
33.8772946418737
79214
33.8752217298851
79561
33.8731488178965
79727
33.8710759059078
79777
33.8690029939192
79652
33.8669300819306
79872
33.8648571699419
79987
33.8627842579533
80025
33.8607113459647
80462
33.858638433976
80113
33.8565655219874
79723
33.8544926099988
80441
33.8524196980101
80633
33.8503467860215
81042
33.8482738740329
81021
33.8462009620443
81396
33.8441280500556
81584
33.842055138067
81499
33.8399822260783
81026
33.8379093140897
81895
33.8358364021011
81819
33.8337634901125
81705
33.8316905781238
82267
33.8296176661352
82195
33.8275447541466
82086
33.8254718421579
82435
33.8233989301693
82764
33.8213260181807
82503
33.819253106192
82798
33.8171801942034
83300
33.8151072822148
83402
33.8130343702261
82913
33.8109614582375
83588
33.8088885462489
83797
33.8068156342602
83903
33.8047427222716
84273
33.807887204429
84274
33.8133757332318
84582
33.8188642620345
84881
33.8243527908372
85014
33.82984131964
85105
33.8353298484427
85655
33.8408183772455
85446
33.8463069060482
85515
33.851795434851
85426
33.8572839636537
85508
33.8627724924565
85484
33.8682610212592
85888
33.873749550062
85854
33.8792380788647
85617
33.8847266076675
85606
33.8902151364702
86336
33.8957036652729
86151
33.9011921940757
86011
33.9066807228784
86680
33.9121692516812
87008
33.9176577804839
87423
33.9231463092867
87913
33.9286348380894
87571
33.9341233668922
88586
33.9396118956949
89129
33.9451004244977
88935
33.9505889533004
90078
33.9560774821032
90829
33.9615660109059
90561
33.9670545397086
90778
33.9725430685114
91089
33.9780315973141
91352
33.9835201261169
91322
33.9890086549196
91702
33.9944971837224
92518
33.9999857125251
92540
34.0054742413279
92753
34.0109627701306
92918
34.0164512989334
93077
34.0219398277361
92930
34.0200714354915
93182
34.0148977598779
92849
34.0097240842642
92197
34.0045504086505
92109
33.9993767330369
91490
33.9942030574232
91375
33.9890293818095
92367
33.9838557061959
92837
33.9786820305822
95143
33.9735083549685
97838
33.9683346793549
101311
33.9631610037412
104219
33.9579873281276
107372
33.9528136525139
106836
33.9476399769002
104718
33.9424663012866
99543
33.9372926256729
93223
33.9321189500592
88417
33.9269452744456
85045
33.9217715988319
83168
33.9165979232182
81777
33.9114242476046
81006
33.9062505719909
80075
33.9010768963772
79261
33.8959032207636
78539
33.8907295451499
77990
33.8855558695362
78072
33.8803821939226
77966
33.8752085183089
78368
33.8700348426952
77946
33.8648611670816
78075
33.8596874914679
78117
33.8545138158542
77966
33.8493401402406
77418
33.8441664646269
76314
33.8389927890133
76283
33.8338191133996
75702
33.8286454377859
75216
33.8234717621723
75295
33.8182980865586
75493
33.8131244109449
77029
33.8079507353313
80398
33.8027770597176
86885
33.7976033841039
96202
33.7924297084903
106395
33.7872560328766
116505
33.7820823572629
110778
33.7769086816493
87150
33.7717350060356
73624
33.7665613304219
71217
33.7613876548083
70493
33.7562139791946
70466
33.751040303581
70056
33.7458666279673
69779
33.7406929523536
69974
33.73551927674
70214
33.7303456011263
70365
33.7251719255126
70272
33.719998249899
70136
33.7148245742853
70652
33.7153044657385
71083
33.7183243655841
71032
33.7213442654296
71442
33.7243641652752
71762
33.7273840651207
71718
33.7304039649663
71964
33.7334238648118
72152
33.7364437646574
72599
33.739463664503
72889
33.7424835643485
72396
33.7455034641941
72797
33.7485233640396
72642
33.7515432638852
72244
33.7545631637308
72151
33.7575830635763
71947
33.7606029634219
71676
33.7636228632674
71527
33.766642763113
71570
33.7696626629586
71139
33.7726825628041
71198
33.7757024626497
71112
33.7787223624952
71953
33.7817422623408
71752
33.7847621621864
71855
33.7877820620319
72937
33.7908019618775
73331
33.793821861723
74388
33.7968417615686
75330
33.7998616614141
76349
33.8028815612597
77616
33.8059014611053
78536
33.8089213609508
79198
33.8119412607964
80430
33.8149611606419
80992
33.8179810604875
81956
33.8210009603331
82649
33.8240208601786
82784
33.8270407600242
83664
33.8300606598697
84257
33.8330805597153
83629
33.834824515171
83506
33.8359952202486
83603
33.8371659253262
83300
33.8383366304037
82636
33.8395073354813
82643
33.8406780405589
81220
33.8418487456365
80956
33.8430194507141
80138
33.8441901557917
80046
33.8453608608693
81711
33.8465315659469
85881
33.8477022710245
90292
33.8488729761021
97307
33.8500436811797
107741
33.8512143862573
114314
33.8523850913349
109266
33.8535557964125
103846
33.8547265014901
103901
33.8558972065677
112432
33.8570679116453
132328
33.8582386167229
140487
33.8594093218005
100851
33.8605800268781
51495
33.8617507319557
33442
33.8629214370332
30498
33.8640921421108
29152
33.8652628471884
28530
33.866433552266
28433
33.8676042573436
28113
33.8687749624212
27753
33.8699456674988
27408
33.8711163725764
27611
33.872287077654
27628
33.8734577827316
27698
33.8746284878092
27660
33.8757991928868
27580
33.8769698979644
27628
33.878140603042
27633
33.8793113081196
27527
33.8804820131972
27540
33.8816527182748
27476
33.8828234233524
27478
33.88399412843
27416
33.8851648335076
27441
33.8863355385851
27467
33.8875062436627
27376
33.8886769487403
27408
33.8898476538179
27619
33.8910183588955
27533
33.8921890639731
27592
33.8955821738059
27374
33.8999737553402
27574
33.9043653368745
27544
33.9087569184088
27546
33.9131484999432
27737
33.9175400814775
27719
33.9219316630118
27578
33.9263232445461
27580
33.9307148260804
27541
33.9351064076148
27548
33.9394979891491
27792
33.9438895706834
27810
33.9482811522177
27705
33.9526727337521
28089
33.9570643152864
27700
33.9614558968207
27527
33.965847478355
27391
33.9702390598894
27714
33.9746306414237
27494
33.979022222958
27458
33.9834138044923
27694
33.9878053860267
27762
33.992196967561
27875
33.9965885490953
28397
34.0009801306296
28773
34.005371712164
28591
34.0097632936983
28440
34.0141548752326
27874
34.0185464567669
27919
34.0229380383012
28082
34.0273296198356
27765
34.0317212013699
27671
34.0361127829042
27726
34.0405043644385
27693
34.0448959459729
27461
34.0492875275072
27525
34.0536791090415
27493
34.0580706905758
27535
34.0624622721102
27718
34.0668538536445
27643
34.0592742513371
27800
34.0463162910719
27760
34.0333583308066
27652
34.0204003705414
27742
34.0074424102761
27667
33.9944844500109
27600
33.9815264897456
27771
33.9685685294804
27872
33.9556105692152
27666
33.9426526089499
27720
33.9296946486847
27746
33.9167366884194
27760
33.9037787281542
27754
33.8908207678889
27825
33.8778628076237
27967
33.8649048473584
27926
33.8519468870932
27981
33.838988926828
27804
33.8260309665627
28095
33.8130730062975
27956
33.8001150460322
27720
33.787157085767
27694
33.7741991255017
27780
33.7612411652365
27741
33.7482832049712
27938
33.735325244706
27851
33.7223672844408
27870
33.7094093241755
27862
33.6964513639103
28004
33.683493403645
28042
33.6705354433798
28268
33.6575774831145
27999
33.6446195228493
28230
33.631661562584
28216
33.6187036023188
28310
33.6057456420535
28289
33.5927876817883
28212
33.5798297215231
28343
33.5668717612578
28441
33.5539138009926
28663
33.5409558407273
28143
33.5279978804621
28183
33.5150399201968
28304
33.5020819599316
28363
33.4891239996663
28271
33.4761660394011
28502
33.4632080791359
28206
33.4502501188706
28228
33.4372921586054
27999
33.4243341983401
28140
33.4113762380749
28002
33.3984182778096
27999
33.3854603175444
27848
33.3725023572791
27629
33.3595443970139
27392
33.3465864367487
27381
33.3336284764834
27491
33.3206705162182
27862
33.3077125559529
27859
33.2947545956877
27598
33.2817966354224
27941
33.2688386751572
28058
33.2558807148919
28351
33.2429227546267
28825
33.2299647943615
28944
33.2170068340962
29085
33.204048873831
29656
33.1910909135657
29617
33.1781329533005
29929
33.1651749930352
29836
33.15221703277
29787
33.1392590725047
29824
33.1263011122395
30076
33.1133431519743
29908
33.100385191709
29862
33.0874272314438
29444
33.0744692711785
28552
33.0615113109133
27996
33.048553350648
27172
33.0355953903828
26054
33.0226374301175
25120
33.0096794698523
24121
32.9967215095871
22999
32.9837635493218
22112
32.9708055890566
20842
32.9578476287913
20024
32.9448896685261
19685
32.9319317082608
19306
32.9189737479956
19278
32.9060157877303
19528
32.9160162601181
20155
32.9363313906542
21240
32.9566465211904
22514
32.9769616517265
24190
32.9972767822627
26126
33.0175919127988
27343
33.037907043335
28025
33.0582221738711
28774
33.0785373044073
31613
33.0988524349434
40858
33.1191675654796
66473
33.1394826960157
108665
33.1597978265519
83235
33.180112957088
41275
33.2004280876242
30151
33.2207432181603
17466
33.2410583486965
9324
33.2613734792326
8030
33.2816886097688
7826
33.3020037403049
7745
33.3223188708411
7571
33.3426340013772
7577
33.3629491319134
7745
33.3832642624495
8104
33.4035793929856
8633
33.4238945235218
9261
33.4442096540579
9245
33.4645247845941
8432
33.4848399151303
7746
33.5051550456664
7410
33.5254701762026
7334
33.5457853067387
7208
33.5661004372748
7251
33.586415567811
7178
33.6067306983471
7285
33.6270458288833
7251
33.6473609594195
7089
33.6676760899556
7287
33.6879912204917
7211
33.7083063510279
7194
33.728621481564
7103
33.7489366121002
7163
33.7692517426363
7297
33.7895668731725
7218
33.8098820037086
7294
33.8301971342448
7361
33.8505122647809
7405
33.8708273953171
7259
33.8911425258532
7434
33.9114576563894
7401
33.9231372000242
7404
33.930936987225
7438
33.9387367744258
7411
33.9465365616266
7323
33.9543363488275
7235
33.9621361360283
7251
33.9699359232291
7341
33.9777357104299
7202
33.9855354976308
7286
33.9933352848316
7453
34.0011350720324
7351
34.0089348592332
7358
34.0167346464341
7431
34.0245344336349
7265
34.0323342208357
7390
34.0401340080365
7489
34.0479337952374
7536
34.0557335824382
7573
34.063533369639
7499
34.0713331568398
7615
34.0791329440407
7728
34.0869327312415
7694
34.0947325184423
7756
34.1025323056431
7655
34.110332092844
7663
34.1181318800448
7813
34.1259316672456
7637
34.1337314544464
7816
34.1415312416473
7577
34.1493310288481
7565
34.1571308160489
7618
34.1649306032497
7698
34.1727303904506
7583
34.1805301776514
7702
34.1883299648522
7764
34.196129752053
7577
34.2039295392539
7638
34.2117293264547
7683
34.2195291136555
7682
34.2273289008563
7610
34.2351286880572
7677
34.242928475258
7875
34.2507282624588
7981
34.2585280496596
8425
34.2663278368604
9546
34.2741276240613
10703
34.2819274112621
11808
34.2897271984629
10694
34.2975269856638
8505
34.3053267728646
7595
34.3131265600654
7485
34.3209263472662
7411
34.328726134467
7376
34.3365259216679
7479
34.3443257088687
7414
34.3521254960695
7357
34.3599252832703
7358
34.3677250704712
7352
34.375524857672
7393
34.3833246448728
7538
34.3842158080476
7459
34.38200309666
7526
34.3797903852724
7462
34.3775776738847
7542
34.3753649624971
7656
34.3731522511095
7533
34.3709395397218
7556
34.3687268283342
7654
34.3665141169466
7669
34.364301405559
7678
34.3620886941713
7699
34.3598759827837
7601
34.3576632713961
7607
34.3554505600085
7659
34.3532378486208
7621
34.3510251372332
7552
34.3488124258456
7627
34.3465997144579
7687
34.3443870030703
7715
34.3421742916827
7708
34.3399615802951
7753
34.3377488689074
7721
34.3355361575198
7763
34.3333234461322
7692
34.3311107347446
7874
34.3288980233569
7871
34.3266853119693
7732
34.3244726005817
7853
34.3222598891941
7865
34.3200471778064
8040
34.3178344664188
8164
34.3156217550312
8332
34.3134090436435
8568
34.3111963322559
8530
34.3089836208683
8346
34.3067709094807
8179
34.304558198093
8109
34.3023454867054
8102
34.3001327753178
7974
34.2979200639301
7966
34.2957073525425
8069
34.2934946411549
8115
34.2912819297673
8098
34.2890692183796
8161
34.286856506992
8175
34.2846437956044
8203
34.2824310842168
8328
34.2802183728291
8265
34.2780056614415
8150
34.2757929500539
8231
34.2735802386662
8202
34.2713675272786
8412
34.269154815891
8354
34.2669421045034
8333
34.2647293931157
8453
34.2625166817281
8456
34.2462098704746
8423
34.2235709273972
8479
34.2009319843199
8501
34.1782930412425
8524
34.1556540981652
8603
34.1330151550878
8616
34.1103762120104
8645
34.0877372689331
8543
34.0650983258557
8671
34.0424593827784
8571
34.019820439701
8662
33.9971814966237
8595
33.9745425535463
8493
33.951903610469
8719
33.9292646673916
8832
33.9066257243143
8800
33.8839867812369
8800
33.8613478381595
8843
33.8387088950822
8943
33.8160699520048
9030
33.7934310089275
8977
33.7707920658501
9018
33.7481531227728
8973
33.7255141796954
9140
33.7028752366181
9144
33.6802362935407
9269
33.6575973504633
9664
33.634958407386
9617
33.6123194643086
9452
33.5896805212313
9227
33.5670415781539
9023
33.5444026350766
9063
33.5217636919992
9195
33.4991247489219
9204
33.4764858058445
9255
33.4538468627672
9207
33.4312079196898
9134
33.4085689766124
9182
33.3859300335351
9259
33.3632910904577
9480
33.3406521473804
9831
33.318013204303
9819
33.2953742612257
10028
33.2727353181483
10069
33.250096375071
10069
33.2274574319936
10148
33.2048184889163
10349
33.1821795458389
10234
33.1595406027615
10019
33.1369016596842
10058
33.1142627166068
10046
33.0916237735295
10040
33.0689848304521
10014
33.0463458873748
9890
33.0237069442974
9913
33.0010680012201
9693
32.9784290581427
9588
32.9557901150653
9548
32.933151171988
9328
32.9105122289106
9289
32.8878732858333
9172
32.8652343427559
9272
32.8425953996786
9516
32.8199564566012
9696
32.7973175135239
10096
32.7746785704465
10949
32.7520396273692
11857
32.7294006842918
13084
32.7067617412145
14515
32.6841227981371
15768
32.6614838550597
15762
32.6388449119824
14091
32.616205968905
11660
32.5935670258277
9949
32.5709280827503
9209
32.548289139673
8966
32.5256501965956
8738
32.5030112535183
8800
32.4803723104409
8860
32.4577333673635
8765
32.4350944242862
8804
32.4124554812088
8811
32.3898165381315
8416
32.3671775950541
8324
32.3445386519768
8120
32.3218997088994
7954
32.2992607658221
8069
32.2766218227447
8164
32.2539828796674
8644
32.23134393659
9088
32.2087049935126
10220
32.1860660504353
12182
32.1634271073579
14547
32.1407881642806
17177
32.1181492212032
19767
32.0955102781259
20276
32.0728713350485
15410
32.0502323919712
8472
32.0275934488938
5173
32.0049545058164
4638
31.9823155627391
4553
31.9596766196617
3917
31.9370376765844
3225
31.914398733507
2863
31.8917597904297
2891
31.8691208473523
2963
31.846481904275
3287
31.8238429611976
3741
31.8012040181203
3864
31.7785650750429
3428
31.7559261319655
2894
31.7332871888882
2575
31.7106482458108
2466
31.6880093027335
2314
31.6653703596561
2157
31.6427314165788
2053
31.6200924735014
2151
31.5974535304241
2264
31.5748145873467
2408
31.5521756442694
2381
31.529536701192
2347
31.5068977581146
2532
31.4842588150373
2404
31.4616198719599
2458
31.4389809288826
2680
31.4163419858052
2503
31.3937030427279
1906
31.3710640996505
1310
31.3484251565732
739
31.3257862134958
330
31.3031472704185
132
31.2805083273411
35
31.2578693842637
9
31.2352304411864
9
31.212591498109
7
31.1899525550317
C 1s
MX-HT 0p5 20Ap
2023
5
9
17
5
6
2
41
Creation
Created by : XPSUser
Date created : 09/05/2023 17:05
Computer : DESKTOP-U3MGE2F
Location
Location ID : H1
Sample : MX-HT 0p5 20Ap
Description : (24.612,15.667,-0.853)mm
Tilt : 0.00
Charge Neutraliser : On
Filament Current : 0.53A
Filament Bias : 2.02V
Charge Balance : 5.02V
Settings
Excitation
Mode : XPS - monochromatic
Tuning : Spectroscopy
Emission current : 15.00mA
Anode library : Al
ESCA modes
Collimation : Slot
Lens : Hybrid
Resolution : 20.00
Scan
Deflection : (0.000, 0.000)mm
C 1s : 1191.690-1209.690eV, Sweeps 1
Start : 1191.690eV
End : 1209.690eV
Centre : 1200.690eV
Width : 18.000eV
Step size : 0.100eV
Number Steps : 180
Dwell time : 331ms
Sweep time : 60s
Sweeps : 1
Target quality : 200
Instrument Conditions
Work function : -4.50
Acquisition Conditions
X-ray Power : 225.00W
Quality : 241.28
XPS
2
24.612
15.6667890625
-0.85346875
Al (mono)
1486.69
225
1E+37
1E+37
1E+37
1E+37
FAT
20
1E+37
-4.5
1E+37
1E+37
1E+37
1E+37
1E+37
C
1s
-1
Kinetic energy
eV
1191.69
0.1
2
Intensity
d
Transmission
d
pulse counting
0.331492
1
0
1E+37
1E+37
1E+37
0
362
220
12446
1.33571680812406
1.34279197206053
717
1.33571680812406
746
1.33575611459037
701
1.33579542105669
691
1.335834727523
707
1.33587403398932
723
1.33591334045563
710
1.33595264692194
723
1.33599195338826
730
1.33603125985457
744
1.33607056632088
755
1.3361098727872
722
1.33614917925351
751
1.33618848571983
732
1.33622779218614
720
1.33626709865245
745
1.33630640511877
784
1.33634571158508
759
1.33638501805139
754
1.33642432451771
762
1.33646363098402
752
1.33650293745034
756
1.33654224391665
776
1.33658155038296
797
1.33662085684928
820
1.33666016331559
833
1.3366994697819
801
1.33673877624822
800
1.33677808271453
808
1.33681738918085
801
1.33685669564716
809
1.33689600211347
810
1.33693530857979
846
1.3369746150461
838
1.33701392151241
897
1.33705322797873
886
1.33709253444504
900
1.33713184091135
952
1.33717114737767
930
1.33721045384398
864
1.3372497603103
901
1.33728906677661
937
1.33732837324292
908
1.33736767970924
954
1.33740698617555
922
1.33744629264186
946
1.33748559910818
927
1.33752490557449
932
1.33756421204081
961
1.33760351850712
912
1.33764282497343
940
1.33768213143975
926
1.33772143790606
886
1.33776074437237
882
1.33780005083869
913
1.337839357305
940
1.33787866377132
926
1.33791797023763
931
1.33795727670394
890
1.33799658317026
912
1.33803588963657
928
1.33807519610288
954
1.3381145025692
939
1.33815380903551
908
1.33819311550182
923
1.33823242196814
962
1.33827172843445
964
1.33831103490077
924
1.33835034136708
885
1.33838964783339
910
1.33842895429971
936
1.33846826076602
939
1.33850756723233
898
1.33854687369865
975
1.33858618016496
956
1.33862548663128
923
1.33866479309759
936
1.3387040995639
923
1.33874340603022
944
1.33878271249653
978
1.33882201896284
998
1.33886132542916
956
1.33890063189547
971
1.33893993836179
1057
1.3389792448281
1053
1.33901855129441
1113
1.33905785776073
1150
1.33909716422704
1152
1.33913647069335
1226
1.33917577715967
1291
1.33921508362598
1295
1.3392543900923
1324
1.33929369655861
1394
1.33933300302492
1420
1.33937230949124
1482
1.33941161595755
1503
1.33945092242386
1596
1.33949022889018
1758
1.33952953535649
1830
1.3395688418228
1905
1.33960814828912
2066
1.33964745475543
2053
1.33968676122175
2341
1.33972606768806
2517
1.33976537415437
2765
1.33980468062069
3204
1.339843987087
3980
1.33988329355331
5113
1.33992260001963
6802
1.33996190648594
9072
1.34000121295226
11266
1.34004051941857
12446
1.34007982588488
11495
1.3401191323512
8681
1.34015843881751
5484
1.34019774528382
3421
1.34023705175014
2277
1.34027635821645
1591
1.34031566468277
1271
1.34035497114908
1050
1.34039427761539
894
1.34043358408171
793
1.34047289054802
761
1.34051219701433
660
1.34055150348065
618
1.34059080994696
607
1.34063011641328
611
1.34066942287959
608
1.3407087293459
654
1.34074803581222
649
1.34078734227853
707
1.34082664874484
781
1.34086595521116
965
1.34090526167747
1235
1.34094456814378
1658
1.3409838746101
2097
1.34102318107641
2442
1.34106248754273
2331
1.34110179400904
1954
1.34114110047535
1376
1.34118040694167
946
1.34121971340798
619
1.34125901987429
454
1.34129832634061
395
1.34133763280692
323
1.34137693927324
288
1.34141624573955
293
1.34145555220586
317
1.34149485867218
284
1.34153416513849
271
1.3415734716048
252
1.34161277807112
267
1.34165208453743
261
1.34169139100375
256
1.34173069747006
266
1.34177000393637
249
1.34180931040269
252
1.341848616869
261
1.34188792333531
233
1.34192722980163
239
1.34196653626794
257
1.34200584273426
243
1.34204514920057
238
1.34208445566688
244
1.3421237621332
242
1.34216306859951
237
1.34220237506582
251
1.34224168153214
266
1.34228098799845
258
1.34232029446476
252
1.34235960093108
245
1.34239890739739
272
1.34243821386371
229
1.34247752033002
244
1.34251682679633
265
1.34255613326265
260
1.34259543972896
264
1.34263474619527
242
1.34267405266159
221
1.3427133591279
220
1.34275266559422
229
1.34279197206053
Cl2s
MX-HT 0p5 20Ap
2023
5
9
17
5
6
2
41
Creation
Created by : XPSUser
Date created : 09/05/2023 17:05
Computer : DESKTOP-U3MGE2F
Location
Location ID : H1
Sample : MX-HT 0p5 20Ap
Description : (24.612,15.667,-0.853)mm
Tilt : 0.00
Charge Neutraliser : On
Filament Current : 0.53A
Filament Bias : 2.02V
Charge Balance : 5.02V
Settings
Excitation
Mode : XPS - monochromatic
Tuning : Spectroscopy
Emission current : 15.00mA
Anode library : Al
ESCA modes
Collimation : Slot
Lens : Hybrid
Resolution : 20.00
Scan
Deflection : (0.000, 0.000)mm
Cl2s : 1201.690-1231.690eV, Sweeps 1
Start : 1201.690eV
End : 1231.690eV
Centre : 1216.690eV
Width : 30.000eV
Step size : 0.100eV
Number Steps : 300
Dwell time : 199ms
Sweep time : 60s
Sweeps : 1
Target quality : 200
Instrument Conditions
Work function : -4.50
Acquisition Conditions
X-ray Power : 225.00W
Quality : 367.32
XPS
3
24.612
15.6667890625
-0.85346875
Al (mono)
1486.69
225
1E+37
1E+37
1E+37
1E+37
FAT
20
1E+37
-4.5
1E+37
1E+37
1E+37
1E+37
1E+37
Cl2s

-1
Kinetic energy
eV
1201.69
0.1
2
Intensity
d
Transmission
d
pulse counting
0.199335548172757
1
0
1E+37
1E+37
1E+37
0
602
112
7308
1.33964745475543
1.35143939464955
1223
1.33964745475543
1309
1.33968676122175
1408
1.33972606768806
1588
1.33976537415437
1803
1.33980468062069
2115
1.339843987087
2596
1.33988329355331
3349
1.33992260001963
4400
1.33996190648594
5937
1.34000121295226
7111
1.34004051941857
7308
1.34007982588488
6311
1.3401191323512
4659
1.34015843881751
2929
1.34019774528382
1846
1.34023705175014
1271
1.34027635821645
966
1.34031566468277
708
1.34035497114908
584
1.34039427761539
518
1.34043358408171
466
1.34047289054802
428
1.34051219701433
402
1.34055150348065
380
1.34059080994696
400
1.34063011641328
376
1.34066942287959
367
1.3407087293459
390
1.34074803581222
402
1.34078734227853
447
1.34082664874484
496
1.34086595521116
602
1.34090526167747
786
1.34094456814378
1059
1.3409838746101
1362
1.34102318107641
1470
1.34106248754273
1382
1.34110179400904
1121
1.34114110047535
783
1.34118040694167
504
1.34121971340798
356
1.34125901987429
262
1.34129832634061
223
1.34133763280692
184
1.34137693927324
178
1.34141624573955
170
1.34145555220586
152
1.34149485867218
158
1.34153416513849
161
1.3415734716048
152
1.34161277807112
156
1.34165208453743
166
1.34169139100375
161
1.34173069747006
161
1.34177000393637
148
1.34180931040269
148
1.341848616869
147
1.34188792333531
145
1.34192722980163
149
1.34196653626794
147
1.34200584273426
146
1.34204514920057
158
1.34208445566688
136
1.3421237621332
142
1.34216306859951
142
1.34220237506582
137
1.34224168153214
138
1.34228098799845
155
1.34232029446476
157
1.34235960093108
154
1.34239890739739
141
1.34243821386371
152
1.34247752033002
141
1.34251682679633
143
1.34255613326265
140
1.34259543972896
147
1.34263474619527
143
1.34267405266159
148
1.3427133591279
142
1.34275266559422
131
1.34279197206053
127
1.34283127852684
133
1.34287058499316
151
1.34290989145947
137
1.34294919792578
147
1.3429885043921
157
1.34302781085841
139
1.34306711732473
129
1.34310642379104
130
1.34314573025735
134
1.34318503672367
151
1.34322434318998
133
1.34326364965629
143
1.34330295612261
140
1.34334226258892
163
1.34338156905524
145
1.34342087552155
140
1.34346018198786
167
1.34349948845418
141
1.34353879492049
151
1.3435781013868
147
1.34361740785312
150
1.34365671431943
162
1.34369602078574
157
1.34373532725206
153
1.34377463371837
157
1.34381394018469
144
1.343853246651
141
1.34389255311731
149
1.34393185958363
134
1.34397116604994
155
1.34401047251625
146
1.34404977898257
141
1.34408908544888
127
1.3441283919152
145
1.34416769838151
148
1.34420700484782
134
1.34424631131414
145
1.34428561778045
159
1.34432492424676
152
1.34436423071308
154
1.34440353717939
156
1.34444284364571
158
1.34448215011202
147
1.34452145657833
124
1.34456076304465
152
1.34460006951096
155
1.34463937597727
164
1.34467868244359
151
1.3447179889099
150
1.34475729537622
157
1.34479660184253
160
1.34483590830884
178
1.34487521477516
146
1.34491452124147
164
1.34495382770778
166
1.3449931341741
163
1.34503244064041
177
1.34507174710672
163
1.34511105357304
162
1.34515036003935
184
1.34518966650567
186
1.34522897297198
172
1.34526827943829
173
1.34530758590461
168
1.34534689237092
170
1.34538619883723
196
1.34542550530355
180
1.34546481176986
197
1.34550411823618
191
1.34554342470249
204
1.3455827311688
191
1.34562203763512
188
1.34566134410143
195
1.34570065056774
185
1.34573995703406
190
1.34577926350037
184
1.34581856996669
183
1.345857876433
207
1.34589718289931
179
1.34593648936563
192
1.34597579583194
182
1.34601510229825
177
1.34605440876457
159
1.34609371523088
156
1.34613302169719
167
1.34617232816351
169
1.34621163462982
167
1.34625094109614
154
1.34629024756245
165
1.34632955402876
150
1.34636886049508
158
1.34640816696139
133
1.3464474734277
155
1.34648677989402
150
1.34652608636033
150
1.34656539282665
139
1.34660469929296
148
1.34664400575927
149
1.34668331222559
150
1.3467226186919
156
1.34676192515821
158
1.34680123162453
155
1.34684053809084
140
1.34687984455716
157
1.34691915102347
149
1.34695845748978
142
1.3469977639561
145
1.34703707042241
146
1.34707637688872
161
1.34711568335504
152
1.34715498982135
133
1.34719429628767
144
1.34723360275398
145
1.34727290922029
146
1.34731221568661
145
1.34735152215292
141
1.34739082861923
149
1.34743013508555
160
1.34746944155186
154
1.34750874801817
128
1.34754805448449
127
1.3475873609508
133
1.34762666741712
135
1.34766597388343
159
1.34770528034974
144
1.34774458681606
158
1.34778389328237
144
1.34782319974868
132
1.347862506215
123
1.34790181268131
119
1.34794111914763
131
1.34798042561394
142
1.34801973208025
147
1.34805903854657
153
1.34809834501288
139
1.34813765147919
146
1.34817695794551
139
1.34821626441182
138
1.34825557087814
133
1.34829487734445
131
1.34833418381076
131
1.34837349027708
142
1.34841279674339
140
1.3484521032097
151
1.34849140967602
159
1.34853071614233
144
1.34857002260865
136
1.34860932907496
130
1.34864863554127
130
1.34868794200759
129
1.3487272484739
135
1.34876655494021
138
1.34880586140653
133
1.34884516787284
135
1.34888447433916
140
1.34892378080547
138
1.34896308727178
146
1.3490023937381
143
1.34904170020441
125
1.34908100667072
134
1.34912031313704
150
1.34915961960335
152
1.34919892606966
133
1.34923823253598
132
1.34927753900229
145
1.34931684546861
133
1.34935615193492
136
1.34939545840123
129
1.34943476486755
133
1.34947407133386
144
1.34951337780017
163
1.34955268426649
132
1.3495919907328
132
1.34963129719912
143
1.34967060366543
138
1.34970991013174
121
1.34974921659806
146
1.34978852306437
145
1.34982782953068
168
1.349867135997
157
1.34990644246331
169
1.34994574892963
158
1.34998505539594
145
1.35002436186225
145
1.35006366832857
154
1.35010297479488
146
1.35014228126119
144
1.35018158772751
142
1.35022089419382
142
1.35026020066013
147
1.35029950712645
139
1.35033881359276
150
1.35037812005908
138
1.35041742652539
131
1.3504567329917
151
1.35049603945802
147
1.35053534592433
135
1.35057465239064
151
1.35061395885696
129
1.35065326532327
143
1.35069257178959
146
1.3507318782559
149
1.35077118472221
149
1.35081049118853
139
1.35084979765484
154
1.35088910412115
135
1.35092841058747
112
1.35096771705378
138
1.3510070235201
156
1.35104632998641
144
1.35108563645272
142
1.35112494291904
144
1.35116424938535
137
1.35120355585166
145
1.35124286231798
135
1.35128216878429
131
1.35132147525061
140
1.35136078171692
139
1.35140008818323
136
1.35143939464955
Ti2p
MX-HT 0p5 20Ap
2023
5
9
17
5
6
2
41
Creation
Created by : XPSUser
Date created : 09/05/2023 17:05
Computer : DESKTOP-U3MGE2F
Location
Location ID : H1
Sample : MX-HT 0p5 20Ap
Description : (24.612,15.667,-0.853)mm
Tilt : 0.00
Charge Neutraliser : On
Filament Current : 0.53A
Filament Bias : 2.02V
Charge Balance : 5.02V
Settings
Excitation
Mode : XPS - monochromatic
Tuning : Spectroscopy
Emission current : 15.00mA
Anode library : Al
ESCA modes
Collimation : Slot
Lens : Hybrid
Resolution : 20.00
Scan
Deflection : (0.000, 0.000)mm
Ti2p : 1016.690-1036.690eV, Sweeps 3
Start : 1016.690eV
End : 1036.690eV
Centre : 1026.690eV
Width : 20.000eV
Step size : 0.100eV
Number Steps : 200
Dwell time : 299ms
Sweep time : 60s
Sweeps : 3
Target quality : 200
Instrument Conditions
Work function : -4.50
Acquisition Conditions
X-ray Power : 225.00W
Quality : 203.24
XPS
4
24.612
15.6667890625
-0.85346875
Al (mono)
1486.69
225
1E+37
1E+37
1E+37
1E+37
FAT
20
1E+37
-4.5
1E+37
1E+37
1E+37
1E+37
1E+37
Ti2p

-1
Kinetic energy
eV
1016.69
0.1
2
Intensity
d
Transmission
d
pulse counting
0.298507462686567
3
0
1E+37
1E+37
1E+37
0
402
2716
15559
1.34818394035546
1.35812104677082
7199
1.35812104677082
7291
1.35807136123875
7155
1.35802167570667
7248
1.35797199017459
7187
1.35792230464252
7162
1.35787261911044
7196
1.35782293357836
7132
1.35777324804629
7149
1.35772356251421
7146
1.35767387698213
7046
1.35762419145005
7039
1.35757450591798
6973
1.3575248203859
7050
1.35747513485382
7044
1.35742544932175
7045
1.35737576378967
7056
1.35732607825759
6979
1.35727639272552
7028
1.35722670719344
6994
1.35717702166136
6940
1.35712733612929
6920
1.35707765059721
6950
1.35702796506513
6833
1.35697827953306
6937
1.35692859400098
6910
1.3568789084689
6854
1.35682922293683
6895
1.35677953740475
6890
1.35672985187267
6890
1.3566801663406
6934
1.35663048080852
6918
1.35658079527644
6929
1.35653110974437
6953
1.35648142421229
7043
1.35643173868021
6996
1.35638205314813
7073
1.35633236761606
7020
1.35628268208398
6978
1.3562329965519
7090
1.35618331101983
7070
1.35613362548775
7084
1.35608393995567
7087
1.3560342544236
7168
1.35598456889152
7368
1.35593488335944
7286
1.35588519782737
7198
1.35583551229529
7380
1.35578582676321
7498
1.35573614123114
7620
1.35568645569906
7630
1.35563677016698
7592
1.35558708463491
7639
1.35553739910283
7571
1.35548771357075
7691
1.35543802803868
7793
1.3553883425066
7800
1.35533865697452
7896
1.35528897144245
7881
1.35523928591037
7840
1.35518960037829
7846
1.35513991484622
8036
1.35509022931414
7981
1.35504054378206
7937
1.35499085824998
8006
1.35494117271791
8013
1.35489148718583
8202
1.35484180165375
8033
1.35479211612168
8180
1.3547424305896
8345
1.35469274505752
8481
1.35464305952545
8603
1.35459337399337
8570
1.35454368846129
8738
1.35449400292922
8895
1.35444431739714
9047
1.35439463186506
9089
1.35434494633299
9119
1.35429526080091
9403
1.35424557526883
9534
1.35419588973676
9672
1.35414620420468
9885
1.3540965186726
10130
1.35404683314053
10153
1.35399714760845
10180
1.35394746207637
10502
1.3538977765443
10433
1.35384809101222
10531
1.35379840548014
10749
1.35374871994806
11076
1.35369903441599
11038
1.35364934888391
10891
1.35359966335183
10846
1.35354997781976
10619
1.35350029228768
10743
1.3534506067556
10471
1.35340092122353
10215
1.35335123569145
9886
1.35330155015937
9496
1.3532518646273
9216
1.35320217909522
8916
1.35315249356314
8706
1.35310280803107
8555
1.35305312249899
8551
1.35300343696691
8500
1.35295375143484
8640
1.35290406590276
8681
1.35285438037068
8870
1.35280469483861
9168
1.35275500930653
9448
1.35270532377445
9733
1.35265563824238
9891
1.3526059527103
9910
1.35255626717822
9982
1.35250658164615
10063
1.35245689611407
9900
1.35240721058199
9466
1.35235752504991
9112
1.35230783951784
9053
1.35225815398576
8733
1.35220846845368
8393
1.35215878292161
8274
1.35210909738953
8215
1.35205941185745
8066
1.35200972632538
8173
1.3519600407933
8304
1.35191035526122
8384
1.35186066972915
8573
1.35181098419707
8842
1.35176129866499
8984
1.35171161313292
9260
1.35166192760084
9655
1.35161224206876
9879
1.35156255653669
10208
1.35151287100461
10603
1.35146318547253
11010
1.35141349994046
11447
1.35136381440838
11719
1.3513141288763
12050
1.35126444334423
12470
1.35121475781215
12678
1.35116507228007
13115
1.35111538674799
13541
1.35106570121592
13753
1.35101601568384
14115
1.35096633015176
14423
1.35091664461969
14543
1.35086695908761
15078
1.35081727355553
15381
1.35076758802346
15435
1.35071790249138
15559
1.3506682169593
15499
1.35061853142723
15217
1.35056884589515
15149
1.35051916036307
14754
1.350469474831
14455
1.35041978929892
13801
1.35037010376684
12877
1.35032041823477
11183
1.35027073270269
8969
1.35022104717061
6979
1.35017136163854
5409
1.35012167610646
4538
1.35007199057438
4077
1.35002230504231
3629
1.34997261951023
3429
1.34992293397815
3386
1.34987324844607
3255
1.349823562914
3237
1.34977387738192
3142
1.34972419184984
3011
1.34967450631777
3076
1.34962482078569
3039
1.34957513525361
3028
1.34952544972154
3016
1.34947576418946
2913
1.34942607865738
2932
1.34937639312531
2938
1.34932670759323
2911
1.34927702206115
2909
1.34922733652908
2859
1.349177650997
2879
1.34912796546492
2796
1.34907827993285
2837
1.34902859440077
2899
1.34897890886869
2903
1.34892922333662
2770
1.34887953780454
2867
1.34882985227246
2824
1.34878016674039
2771
1.34873048120831
2787
1.34868079567623
2882
1.34863111014416
2807
1.34858142461208
2777
1.34853173908
2716
1.34848205354792
2741
1.34843236801585
2842
1.34838268248377
2761
1.34833299695169
2815
1.34828331141962
2808
1.34823362588754
2796
1.34818394035546
F1s
MX-HT 0p5 20Ap
2023
5
9
17
5
6
2
41
Creation
Created by : XPSUser
Date created : 09/05/2023 17:05
Computer : DESKTOP-U3MGE2F
Location
Location ID : H1
Sample : MX-HT 0p5 20Ap
Description : (24.612,15.667,-0.853)mm
Tilt : 0.00
Charge Neutraliser : On
Filament Current : 0.53A
Filament Bias : 2.02V
Charge Balance : 5.02V
Settings
Excitation
Mode : XPS - monochromatic
Tuning : Spectroscopy
Emission current : 15.00mA
Anode library : Al
ESCA modes
Collimation : Slot
Lens : Hybrid
Resolution : 20.00
Scan
Deflection : (0.000, 0.000)mm
F1s : 791.690-811.690eV, Sweeps 5
Start : 791.690eV
End : 811.690eV
Centre : 801.690eV
Width : 20.000eV
Step size : 0.100eV
Number Steps : 200
Dwell time : 299ms
Sweep time : 60s
Sweeps : 5
Target quality : 200
Instrument Conditions
Work function : -4.50
Acquisition Conditions
X-ray Power : 225.00W
Quality : 154.56
XPS
5
24.612
15.6667890625
-0.85346875
Al (mono)
1486.69
225
1E+37
1E+37
1E+37
1E+37
FAT
20
1E+37
-4.5
1E+37
1E+37
1E+37
1E+37
1E+37
F1s

-1
Kinetic energy
eV
791.69
0.1
2
Intensity
d
Transmission
d
pulse counting
0.298507462686567
5
0
1E+37
1E+37
1E+37
0
402
12318
25594
1.45714403256293
1.46809980524165
12792
1.46809980524165
12734
1.46804594968559
12816
1.46799209412953
12752
1.46793823857347
12822
1.46788438301742
12802
1.46783052746136
12702
1.4677766719053
12762
1.46772281634924
12784
1.46766896079318
12694
1.46761510523713
12911
1.46756124968107
12849
1.46750739412501
12721
1.46745353856895
12887
1.46739968301289
12875
1.46734582745684
12905
1.46729197190078
12839
1.46723811634472
12958
1.46718426078866
12923
1.4671304052326
12754
1.46707654967654
12932
1.46702269412049
12909
1.46696883856443
12852
1.46691498300837
12839
1.46686112745231
12637
1.46680727189625
12768
1.4667534163402
12705
1.46669956078414
12850
1.46664570522808
12891
1.46659184967202
12924
1.46653799411596
13084
1.46648413855991
12862
1.46643028300385
12997
1.46637642744779
12872
1.46632257189173
12825
1.46626871633567
12780
1.46621486077962
12847
1.46616100522356
12903
1.4661071496675
12711
1.46605329411144
12688
1.46599943855538
12730
1.46594558299933
12694
1.46589172744327
12864
1.46583787188721
12932
1.46578401633115
12854
1.46573016077509
12769
1.46567630521904
12866
1.46562244966298
12972
1.46556859410692
12983
1.46551473855086
12950
1.4654608829948
12773
1.46540702743874
12946
1.46535317188269
13063
1.46529931632663
12920
1.46524546077057
13015
1.46519160521451
13172
1.46513774965845
13033
1.4650838941024
12863
1.46503003854634
12891
1.46497618299028
12912
1.46492232743422
12802
1.46486847187816
13092
1.46481461632211
12966
1.46476076076605
12938
1.46470690520999
12965
1.46465304965393
12950
1.46459919409787
13034
1.46454533854182
13162
1.46449148298576
13233
1.4644376274297
13127
1.46438377187364
12968
1.46432991631758
13115
1.46427606076153
13182
1.46422220520547
13108
1.46416834964941
13288
1.46411449409335
13157
1.46406063853729
13326
1.46400678298124
13345
1.46395292742518
13512
1.46389907186912
13506
1.46384521631306
13559
1.463791360757
13709
1.46373750520094
13581
1.46368364964489
13751
1.46362979408883
13760
1.46357593853277
13723
1.46352208297671
14083
1.46346822742065
14416
1.4634143718646
14387
1.46336051630854
14555
1.46330666075248
14808
1.46325280519642
14906
1.46319894964036
15012
1.46314509408431
15273
1.46309123852825
15647
1.46303738297219
16078
1.46298352741613
16703
1.46292967186007
17239
1.46287581630402
18187
1.46282196074796
19313
1.4627681051919
20931
1.46271424963584
21664
1.46266039407978
23217
1.46260653852373
24502
1.46255268296767
25371
1.46249882741161
25594
1.46244497185555
25412
1.46239111629949
24313
1.46233726074344
22896
1.46228340518738
21549
1.46222954963132
19781
1.46217569407526
18202
1.4621218385192
16913
1.46206798296314
15848
1.46201412740709
15037
1.46196027185103
14485
1.46190641629497
14025
1.46185256073891
13651
1.46179870518285
13409
1.4617448496268
13288
1.46169099407074
13053
1.46163713851468
12935
1.46158328295862
12913
1.46152942740256
12860
1.46147557184651
12804
1.46142171629045
12766
1.46136786073439
12734
1.46131400517833
12772
1.46126014962227
12627
1.46120629406622
12542
1.46115243851016
12446
1.4610985829541
12643
1.46104472739804
12443
1.46099087184198
12564
1.46093701628593
12647
1.46088316072987
12572
1.46082930517381
12559
1.46077544961775
12692
1.46072159406169
12688
1.46066773850564
12632
1.46061388294958
12549
1.46056002739352
12614
1.46050617183746
12435
1.4604523162814
12505
1.46039846072534
12547
1.46034460516929
12699
1.46029074961323
12692
1.46023689405717
12646
1.46018303850111
12521
1.46012918294505
12580
1.460075327389
12690
1.46002147183294
12510
1.45996761627688
12583
1.45991376072082
12477
1.45985990516476
12454
1.45980604960871
12563
1.45975219405265
12550
1.45969833849659
12549
1.45964448294053
12530
1.45959062738447
12671
1.45953677182842
12586
1.45948291627236
12479
1.4594290607163
12588
1.45937520516024
12516
1.45932134960418
12511
1.45926749404813
12443
1.45921363849207
12354
1.45915978293601
12565
1.45910592737995
12482
1.45905207182389
12645
1.45899821626783
12601
1.45894436071178
12474
1.45889050515572
12462
1.45883664959966
12461
1.4587827940436
12681
1.45872893848754
12500
1.45867508293149
12721
1.45862122737543
12665
1.45856737181937
12500
1.45851351626331
12624
1.45845966070725
12585
1.4584058051512
12592
1.45835194959514
12471
1.45829809403908
12318
1.45824423848302
12625
1.45818054888434
12618
1.45811576661425
12532
1.45805098434416
12611
1.45798620207407
12577
1.45792141980398
12576
1.4578566375339
12482
1.45779185526381
12398
1.45772707299372
12447
1.45766229072363
12511
1.45759750845354
12619
1.45753272618346
12499
1.45746794391337
12472
1.45740316164328
12636
1.45733837937319
12724
1.4572735971031
12593
1.45720881483302
12656
1.45714403256293
O1s
MX-HT 0p5 20Ap
2023
5
9
17
5
6
2
41
Creation
Created by : XPSUser
Date created : 09/05/2023 17:05
Computer : DESKTOP-U3MGE2F
Location
Location ID : H1
Sample : MX-HT 0p5 20Ap
Description : (24.612,15.667,-0.853)mm
Tilt : 0.00
Charge Neutraliser : On
Filament Current : 0.53A
Filament Bias : 2.02V
Charge Balance : 5.02V
Settings
Excitation
Mode : XPS - monochromatic
Tuning : Spectroscopy
Emission current : 15.00mA
Anode library : Al
ESCA modes
Collimation : Slot
Lens : Hybrid
Resolution : 20.00
Scan
Deflection : (0.000, 0.000)mm
O1s : 946.690-961.690eV, Sweeps 5
Start : 946.690eV
End : 961.690eV
Centre : 954.190eV
Width : 15.000eV
Step size : 0.100eV
Number Steps : 150
Dwell time : 397ms
Sweep time : 60s
Sweeps : 5
Target quality : 200
Instrument Conditions
Work function : -4.50
Acquisition Conditions
X-ray Power : 225.00W
Quality : 142.32
XPS
6
24.612
15.6667890625
-0.85346875
Al (mono)
1486.69
225
1E+37
1E+37
1E+37
1E+37
FAT
20
1E+37
-4.5
1E+37
1E+37
1E+37
1E+37
1E+37
O1s

-1
Kinetic energy
eV
946.69
0.1
2
Intensity
d
Transmission
d
pulse counting
0.397351
5
0
1E+37
1E+37
1E+37
0
302
14258
28218
1.39073012089434
1.39549665066723
15875
1.39549665066723
15759
1.39546487380208
15787
1.39543309693692
15623
1.39540132007177
15560
1.39536954320662
15487
1.39533776634147
15532
1.39530598947631
15542
1.39527421261116
15492
1.39524243574601
15503
1.39521065888085
15670
1.3951788820157
15409
1.39514710515055
15344
1.3951153282854
15476
1.39508355142024
15356
1.39505177455509
15372
1.39501999768994
15396
1.39498822082479
15574
1.39495644395963
15423
1.39492466709448
15352
1.39489289022933
15363
1.39486111336418
15384
1.39482933649902
15523
1.39479755963387
15415
1.39476578276872
15480
1.39473400590357
15269
1.39470222903841
15343
1.39467045217326
15381
1.39463867530811
15431
1.39460689844296
15574
1.3945751215778
15416
1.39454334471265
15434
1.3945115678475
15341
1.39447979098235
15565
1.39444801411719
15473
1.39441623725204
15476
1.39438446038689
15382
1.39435268352174
15271
1.39432090665658
15333
1.39428912979143
15351
1.39425735292628
15371
1.39422557606112
15555
1.39419379919597
15533
1.39416202233082
15311
1.39413024546567
15254
1.39409846860051
15403
1.39406669173536
15489
1.39403491487021
15410
1.39400313800506
15449
1.3939713611399
15638
1.39393958427475
15667
1.3939078074096
15534
1.39387603054445
15620
1.39384425367929
15424
1.39381247681414
15634
1.39378069994899
15876
1.39374892308384
15746
1.39371714621868
15777
1.39368536935353
15754
1.39365359248838
16077
1.39362181562323
16111
1.39359003875807
16120
1.39355826189292
16416
1.39352648502777
16567
1.39349470816262
16615
1.39346293129746
16754
1.39343115443231
16955
1.39339937756716
17295
1.393367600702
17485
1.39333582383685
17656
1.3933040469717
18035
1.39327227010655
18455
1.39324049324139
18706
1.39320871637624
19040
1.39317693951109
19414
1.39314516264594
19553
1.39311338578078
19655
1.39308160891563
20173
1.39304983205048
20373
1.39301805518533
20395
1.39298627832017
20876
1.39295450145502
21022
1.39292272458987
21302
1.39289094772472
21307
1.39285917085956
21616
1.39282739399441
21758
1.39279561712926
22082
1.39276384026411
22220
1.39273206339895
22387
1.3927002865338
22496
1.39266850966865
23024
1.3926367328035
23155
1.39260495593834
23505
1.39257317907319
24337
1.39254140220804
24816
1.39250962534289
25481
1.39247784847773
26326
1.39244607161258
26908
1.39241429474743
26749
1.39238251788227
26651
1.39235074101712
26662
1.39231896415197
26457
1.39228718728682
26310
1.39225541042166
26528
1.39222363355651
26798
1.39219185669136
27301
1.39216007982621
27818
1.39212830296105
28105
1.3920965260959
28218
1.39206474923075
27425
1.3920329723656
25657
1.39200119550044
23432
1.39196941863529
21080
1.39193764177014
19075
1.39190586490499
17566
1.39187408803983
16611
1.39184231117468
15998
1.39181053430953
15438
1.39177875744438
15074
1.39174698057922
15022
1.39171520371407
14833
1.39168342684892
14882
1.39165164998377
14805
1.39161987311861
14768
1.39158809625346
14694
1.39155631938831
14679
1.39152454252316
14733
1.391492765658
14623
1.39146098879285
14604
1.3914292119277
14488
1.39139743506254
14686
1.39136565819739
14541
1.39133388133224
14656
1.39130210446709
14553
1.39127032760193
14657
1.39123855073678
14540
1.39120677387163
14421
1.39117499700648
14571
1.39114322014132
14715
1.39111144327617
14456
1.39107966641102
14299
1.39104788954587
14569
1.39101611268071
14624
1.39098433581556
14258
1.39095255895041
14393
1.39092078208526
14439
1.3908890052201
14529
1.39085722835495
14567
1.3908254514898
14533
1.39079367462465
14519
1.39076189775949
14542
1.39073012089434
Cl2p
MX-HT 0p5 20Ap
2023
5
9
17
5
6
2
41
Creation
Created by : XPSUser
Date created : 09/05/2023 17:05
Computer : DESKTOP-U3MGE2F
Location
Location ID : H1
Sample : MX-HT 0p5 20Ap
Description : (24.612,15.667,-0.853)mm
Tilt : 0.00
Charge Neutraliser : On
Filament Current : 0.53A
Filament Bias : 2.02V
Charge Balance : 5.02V
Settings
Excitation
Mode : XPS - monochromatic
Tuning : Spectroscopy
Emission current : 15.00mA
Anode library : Al
ESCA modes
Collimation : Slot
Lens : Hybrid
Resolution : 20.00
Scan
Deflection : (0.000, 0.000)mm
Cl2p : 1278.690-1291.690eV, Sweeps 5
Start : 1278.690eV
End : 1291.690eV
Centre : 1285.190eV
Width : 13.000eV
Step size : 0.100eV
Number Steps : 130
Dwell time : 458ms
Sweep time : 60s
Sweeps : 5
Target quality : 200
Instrument Conditions
Work function : -4.50
Acquisition Conditions
X-ray Power : 225.00W
Quality : 57.64
XPS
7
24.612
15.6667890625
-0.85346875
Al (mono)
1486.69
225
1E+37
1E+37
1E+37
1E+37
FAT
20
1E+37
-4.5
1E+37
1E+37
1E+37
1E+37
1E+37
Cl2p

-1
Kinetic energy
eV
1278.69
0.1
2
Intensity
d
Transmission
d
pulse counting
0.458015267175573
5
0
1E+37
1E+37
1E+37
0
262
1613
3698
1.34975176565477
1.35099769238123
1772
1.35099769238123
1721
1.35098810832949
1750
1.35097852427775
1742
1.35096894022601
1745
1.35095935617426
1695
1.35094977212252
1781
1.35094018807078
1660
1.35093060401904
1741
1.3509210199673
1696
1.35091143591555
1731
1.35090185186381
1736
1.35089226781207
1690
1.35088268376033
1688
1.35087309970859
1749
1.35086351565684
1704
1.3508539316051
1710
1.35084434755336
1721
1.35083476350162
1705
1.35082517944988
1743
1.35081559539813
1737
1.35080601134639
1737
1.35079642729465
1675
1.35078684324291
1708
1.35077725919117
1732
1.35076767513942
1674
1.35075809108768
1695
1.35074850703594
1773
1.3507389229842
1741
1.35072933893246
1658
1.35071975488071
1705
1.35071017082897
1723
1.35070058677723
1721
1.35069100272549
1734
1.35068141867375
1716
1.350671834622
1729
1.35066225057026
1765
1.35065266651852
1770
1.35064308246678
1690
1.35063349841504
1784
1.35062391436329
1720
1.35061433031155
1731
1.35060474625981
1744
1.35059516220807
1718
1.35058557815633
1725
1.35057599410458
1776
1.35056641005284
1739
1.3505568260011
1754
1.35054724194936
1681
1.35053765789762
1778
1.35052807384587
1843
1.35051848979413
1753
1.35050890574239
1740
1.35049932169065
1733
1.35048973763891
1744
1.35048015358716
1801
1.35047056953542
1704
1.35046098548368
1821
1.35045140143194
1767
1.3504418173802
1749
1.35043223332845
1816
1.35042264927671
1860
1.35041306522497
1814
1.35040348117323
1874
1.35039389712149
1902
1.35038431306974
1875
1.350374729018
1906
1.35036514496626
1939
1.35035556091452
1924
1.35034597686278
2024
1.35033639281103
2004
1.35032680875929
2066
1.35031722470755
2194
1.35030764065581
2276
1.35029805660407
2507
1.35028847255232
2700
1.35027888850058
2834
1.35026930444884
2923
1.3502597203971
2937
1.35025013634536
2775
1.35024055229361
2645
1.35023096824187
2525
1.35022138419013
2349
1.35021180013839
2300
1.35020221608665
2216
1.3501926320349
2202
1.35018304798316
2215
1.35017346393142
2276
1.35016387987968
2437
1.35015429582794
2711
1.35014471177619
2965
1.35013512772445
3203
1.35012554367271
3495
1.35011595962097
3653
1.35010637556923
3698
1.35009679151748
3472
1.35008720746574
3182
1.350077623414
2743
1.35006803936226
2546
1.35005845531052
2204
1.35004887125877
2003
1.35003928720703
1926
1.35002970315529
1782
1.35002011910355
1643
1.35001053505181
1760
1.35000095100006
1728
1.34999136694832
1654
1.34998178289658
1613
1.34997219884484
1658
1.3499626147931
1714
1.34995303074135
1687
1.34994344668961
1693
1.34993386263787
1633
1.34992427858613
1619
1.34991469453439
1628
1.34990511048264
1658
1.3498955264309
1717
1.34988594237916
1685
1.34987635832742
1646
1.34986677427568
1631
1.34985719022393
1669
1.34984760617219
1703
1.34983802212045
1674
1.34982843806871
1669
1.34981885401697
1674
1.34980926996522
1663
1.34979968591348
1715
1.34979010186174
1665
1.34978051781
1651
1.34977093375826
1690
1.34976134970651
1638
1.34975176565477
Ti3s
MX-HT 0p5 20Ap
2023
5
9
17
5
6
2
41
Creation
Created by : XPSUser
Date created : 09/05/2023 17:05
Computer : DESKTOP-U3MGE2F
Location
Location ID : H1
Sample : MX-HT 0p5 20Ap
Description : (24.612,15.667,-0.853)mm
Tilt : 0.00
Charge Neutraliser : On
Filament Current : 0.53A
Filament Bias : 2.02V
Charge Balance : 5.02V
Settings
Excitation
Mode : XPS - monochromatic
Tuning : Spectroscopy
Emission current : 15.00mA
Anode library : Al
ESCA modes
Collimation : Slot
Lens : Hybrid
Resolution : 20.00
Scan
Deflection : (0.000, 0.000)mm
Ti3s : 1412.690-1442.690eV, Sweeps 5
Start : 1412.690eV
End : 1442.690eV
Centre : 1427.690eV
Width : 30.000eV
Step size : 0.100eV
Number Steps : 300
Dwell time : 199ms
Sweep time : 60s
Sweeps : 5
Target quality : 200
Instrument Conditions
Work function : -4.50
Acquisition Conditions
X-ray Power : 225.00W
Quality : 43.80
XPS
8
24.612
15.6667890625
-0.85346875
Al (mono)
1486.69
225
1E+37
1E+37
1E+37
1E+37
FAT
20
1E+37
-4.5
1E+37
1E+37
1E+37
1E+37
1E+37
Ti3s

-1
Kinetic energy
eV
1412.69
0.1
2
Intensity
d
Transmission
d
pulse counting
0.199335548172757
5
0
1E+37
1E+37
1E+37
0
602
712
1671
1.29494863949153
1.2965505499007
940
1.2965505499007
915
1.29654521019933
937
1.29653987049797
955
1.2965345307966
911
1.29652919109524
951
1.29652385139388
930
1.29651851169251
902
1.29651317199115
921
1.29650783228978
969
1.29650249258842
962
1.29649715288706
931
1.29649181318569
928
1.29648647348433
907
1.29648113378297
946
1.2964757940816
896
1.29647045438024
912
1.29646511467887
923
1.29645977497751
966
1.29645443527615
935
1.29644909557478
923
1.29644375587342
851
1.29643841617205
875
1.29643307647069
916
1.29642773676933
926
1.29642239706796
911
1.2964170573666
892
1.29641171766523
939
1.29640637796387
906
1.29640103826251
911
1.29639569856114
927
1.29639035885978
838
1.29638501915842
857
1.29637967945705
901
1.29637433975569
886
1.29636900005432
885
1.29636366035296
894
1.2963583206516
874
1.29635298095023
833
1.29634764124887
898
1.2963423015475
885
1.29633696184614
914
1.29633162214478
890
1.29632628244341
857
1.29632094274205
866
1.29631560304068
845
1.29631026333932
863
1.29630492363796
832
1.29629958393659
865
1.29629424423523
906
1.29628890453386
909
1.2962835648325
909
1.29627822513114
841
1.29627288542977
898
1.29626754572841
882
1.29626220602705
873
1.29625686632568
870
1.29625152662432
859
1.29624618692295
879
1.29624084722159
878
1.29623550752023
869
1.29623016781886
872
1.2962248281175
860
1.29621948841613
828
1.29621414871477
870
1.29620880901341
888
1.29620346931204
839
1.29619812961068
843
1.29619278990931
820
1.29618745020795
898
1.29618211050659
909
1.29617677080522
884
1.29617143110386
928
1.2961660914025
919
1.29616075170113
873
1.29615541199977
880
1.2961500722984
870
1.29614473259704
927
1.29613939289568
900
1.29613405319431
953
1.29612871349295
908
1.29612337379158
902
1.29611803409022
933
1.29611269438886
957
1.29610735468749
934
1.29610201498613
927
1.29609667528476
911
1.2960913355834
893
1.29608599588204
930
1.29608065618067
938
1.29607531647931
941
1.29606997677794
971
1.29606463707658
951
1.29605929737522
974
1.29605395767385
942
1.29604861797249
983
1.29604327827113
999
1.29603793856976
1022
1.2960325988684
1025
1.29602725916703
1042
1.29602191946567
1046
1.29601657976431
1034
1.29601124006294
1032
1.29600590036158
1040
1.29600056066021
1076
1.29599522095885
1085
1.29598988125749
1076
1.29598454155612
1067
1.29597920185476
1084
1.29597386215339
1177
1.29596852245203
1186
1.29596318275067
1202
1.2959578430493
1156
1.29595250334794
1197
1.29594716364658
1171
1.29594182394521
1177
1.29593648424385
1219
1.29593114454248
1285
1.29592580484112
1311
1.29592046513976
1328
1.29591512543839
1310
1.29590978573703
1266
1.29590444603566
1320
1.2958991063343
1327
1.29589376663294
1343
1.29588842693157
1324
1.29588308723021
1340
1.29587774752884
1364
1.29587240782748
1400
1.29586706812612
1490
1.29586172842475
1439
1.29585638872339
1429
1.29585104902202
1456
1.29584570932066
1470
1.2958403696193
1525
1.29583502991793
1546
1.29582969021657
1520
1.29582435051521
1587
1.29581901081384
1621
1.29581367111248
1586
1.29580833141111
1623
1.29580299170975
1571
1.29579765200839
1619
1.29579231230702
1640
1.29578697260566
1650
1.29578163290429
1615
1.29577629320293
1652
1.29577095350157
1671
1.2957656138002
1617
1.29576027409884
1610
1.29575493439747
1639
1.29574959469611
1619
1.29574425499475
1557
1.29573891529338
1541
1.29573357559202
1535
1.29572823589066
1561
1.29572289618929
1439
1.29571755648793
1377
1.29571221678656
1323
1.2957068770852
1321
1.29570153738384
1288
1.29569619768247
1225
1.29569085798111
1191
1.29568551827974
1173
1.29568017857838
1147
1.29567483887702
1130
1.29566949917565
1128
1.29566415947429
1061
1.29565881977292
1055
1.29565348007156
1031
1.2956481403702
1006
1.29564280066883
1026
1.29563746096747
972
1.2956321212661
961
1.29562678156474
993
1.29562144186338
946
1.29561610216201
905
1.29561076246065
923
1.29560542275929
907
1.29560008305792
922
1.29559474335656
931
1.29558940365519
907
1.29558406395383
919
1.29557872425247
891
1.2955733845511
931
1.29556804484974
892
1.29556270514837
831
1.29555736544701
866
1.29555202574565
835
1.29554668604428
837
1.29554134634292
879
1.29553600664155
865
1.29553066694019
890
1.29552532723883
871
1.29551998753746
868
1.2955146478361
889
1.29550930813473
825
1.29550396843337
888
1.29549862873201
848
1.29549328903064
875
1.29548794932928
828
1.29548260962792
783
1.29547726992655
843
1.29547193022519
848
1.29546659052382
840
1.29546125082246
845
1.2954559111211
823
1.29545057141973
851
1.29544523171837
858
1.295439892017
896
1.29543455231564
863
1.29542921261428
830
1.29542387291291
800
1.29541853321155
819
1.29541319351018
866
1.29540785380882
827
1.29540251410746
822
1.29539717440609
870
1.29539183470473
800
1.29538649500337
859
1.295381155302
846
1.29537581560064
793
1.29537047589927
790
1.29536513619791
851
1.29535979649655
860
1.29535445679518
812
1.29534911709382
861
1.29534377739245
825
1.29533843769109
850
1.29533309798973
845
1.29532775828836
882
1.295322418587
863
1.29531707888563
811
1.29531173918427
818
1.29530639948291
876
1.29530105978154
870
1.29529572008018
832
1.29529038037881
819
1.29528504067745
869
1.29527970097609
840
1.29527436127472
823
1.29526902157336
862
1.295263681872
862
1.29525834217063
867
1.29525300246927
837
1.2952476627679
866
1.29524232306654
845
1.29523698336518
855
1.29523164366381
827
1.29522630396245
815
1.29522096426108
855
1.29521562455972
826
1.29521028485836
868
1.29520494515699
814
1.29519960545563
840
1.29519426575426
829
1.2951889260529
812
1.29518358635154
806
1.29517824665017
819
1.29517290694881
815
1.29516756724745
792
1.29516222754608
785
1.29515688784472
820
1.29515154814335
834
1.29514620844199
851
1.29514086874063
804
1.29513552903926
825
1.2951301893379
869
1.29512484963653
807
1.29511950993517
786
1.29511417023381
793
1.29510883053244
783
1.29510349083108
804
1.29509815112971
807
1.29509281142835
856
1.29508747172699
842
1.29508213202562
797
1.29507679232426
804
1.29507145262289
816
1.29506611292153
747
1.29506077322017
797
1.2950554335188
822
1.29505009381744
802
1.29504475411608
801
1.29503941441471
747
1.29503407471335
772
1.29502873501198
768
1.29502339531062
754
1.29501805560926
790
1.29501271590789
788
1.29500737620653
747
1.29500203650516
765
1.2949966968038
766
1.29499135710244
752
1.29498601740107
762
1.29498067769971
712
1.29497533799834
757
1.29496999829698
792
1.29496465859562
745
1.29495931889425
742
1.29495397919289
745
1.29494863949153
Ti3p
MX-HT 0p5 20Ap
2023
5
9
17
5
6
2
41
Creation
Created by : XPSUser
Date created : 09/05/2023 17:05
Computer : DESKTOP-U3MGE2F
Location
Location ID : H1
Sample : MX-HT 0p5 20Ap
Description : (24.612,15.667,-0.853)mm
Tilt : 0.00
Charge Neutraliser : On
Filament Current : 0.53A
Filament Bias : 2.02V
Charge Balance : 5.02V
Settings
Excitation
Mode : XPS - monochromatic
Tuning : Spectroscopy
Emission current : 15.00mA
Anode library : Al
ESCA modes
Collimation : Slot
Lens : Hybrid
Resolution : 20.00
Scan
Deflection : (0.000, 0.000)mm
Ti3p : 1437.690-1467.690eV, Sweeps 5
Start : 1437.690eV
End : 1467.690eV
Centre : 1452.690eV
Width : 30.000eV
Step size : 0.100eV
Number Steps : 300
Dwell time : 199ms
Sweep time : 60s
Sweeps : 5
Target quality : 200
Instrument Conditions
Work function : -4.50
Acquisition Conditions
X-ray Power : 225.00W
Quality : 112.32
XPS
9
24.612
15.6667890625
-0.85346875
Al (mono)
1486.69
225
1E+37
1E+37
1E+37
1E+37
FAT
20
1E+37
-4.5
1E+37
1E+37
1E+37
1E+37
1E+37
Ti3p

-1
Kinetic energy
eV
1437.69
0.1
2
Intensity
d
Transmission
d
pulse counting
0.199335548172757
5
0
1E+37
1E+37
1E+37
0
602
240
2267
1.29361371415055
1.29521562455972
860
1.29521562455972
848
1.29521028485836
847
1.29520494515699
824
1.29519960545563
831
1.29519426575426
845
1.2951889260529
861
1.29518358635154
852
1.29517824665017
806
1.29517290694881
806
1.29516756724745
836
1.29516222754608
791
1.29515688784472
835
1.29515154814335
846
1.29514620844199
821
1.29514086874063
852
1.29513552903926
831
1.2951301893379
801
1.29512484963653
821
1.29511950993517
837
1.29511417023381
834
1.29510883053244
819
1.29510349083108
836
1.29509815112971
818
1.29509281142835
753
1.29508747172699
790
1.29508213202562
841
1.29507679232426
825
1.29507145262289
797
1.29506611292153
831
1.29506077322017
806
1.2950554335188
826
1.29505009381744
826
1.29504475411608
780
1.29503941441471
780
1.29503407471335
788
1.29502873501198
794
1.29502339531062
794
1.29501805560926
785
1.29501271590789
750
1.29500737620653
766
1.29500203650516
765
1.2949966968038
808
1.29499135710244
730
1.29498601740107
722
1.29498067769971
754
1.29497533799834
759
1.29496999829698
755
1.29496465859562
754
1.29495931889425
798
1.29495397919289
754
1.29494863949153
740
1.29494329979016
747
1.2949379600888
746
1.29493262038743
750
1.29492728068607
724
1.29492194098471
729
1.29491660128334
756
1.29491126158198
753
1.29490592188061
733
1.29490058217925
712
1.29489524247789
711
1.29488990277652
729
1.29488456307516
738
1.29487922337379
714
1.29487388367243
743
1.29486854397107
772
1.2948632042697
773
1.29485786456834
738
1.29485252486697
753
1.29484718516561
765
1.29484184546425
724
1.29483650576288
741
1.29483116606152
738
1.29482582636016
725
1.29482048665879
740
1.29481514695743
808
1.29480980725606
765
1.2948044675547
781
1.29479912785334
797
1.29479378815197
795
1.29478844845061
759
1.29478310874924
753
1.29477776904788
779
1.29477242934652
774
1.29476708964515
775
1.29476174994379
772
1.29475641024242
813
1.29475107054106
791
1.2947457308397
826
1.29474039113833
819
1.29473505143697
836
1.29472971173561
841
1.29472437203424
875
1.29471903233288
903
1.29471369263151
891
1.29470835293015
879
1.29470301322879
911
1.29469767352742
912
1.29469233382606
953
1.29468699412469
930
1.29468165442333
988
1.29467631472197
986
1.2946709750206
986
1.29466563531924
1042
1.29466029561787
1081
1.29465495591651
1116
1.29464961621515
1088
1.29464427651378
1107
1.29463893681242
1134
1.29463359711105
1193
1.29462825740969
1220
1.29462291770833
1299
1.29461757800696
1319
1.2946122383056
1321
1.29460689860424
1417
1.29460155890287
1426
1.29459621920151
1451
1.29459087950014
1507
1.29458553979878
1450
1.29458020009742
1464
1.29457486039605
1454
1.29456952069469
1514
1.29456418099332
1522
1.29455884129196
1509
1.2945535015906
1560
1.29454816188923
1600
1.29454282218787
1504
1.2945374824865
1592
1.29453214278514
1579
1.29452680308378
1645
1.29452146338241
1729
1.29451612368105
1759
1.29451078397968
1802
1.29450544427832
1815
1.29450010457696
1898
1.29449476487559
1849
1.29448942517423
2000
1.29448408547287
2089
1.2944787457715
2081
1.29447340607014
2071
1.29446806636877
2083
1.29446272666741
2208
1.29445738696605
2187
1.29445204726468
2263
1.29444670756332
2223
1.29444136786195
2228
1.29443602816059
2201
1.29443068845923
2267
1.29442534875786
2246
1.2944200090565
2187
1.29441466935513
2252
1.29440932965377
2190
1.29440398995241
2105
1.29439865025104
1988
1.29439331054968
1903
1.29438797084832
1771
1.29438263114695
1688
1.29437729144559
1564
1.29437195174422
1414
1.29436661204286
1208
1.2943612723415
1152
1.29435593264013
950
1.29435059293877
845
1.2943452532374
772
1.29433991353604
690
1.29433457383468
605
1.29432923413331
537
1.29432389443195
555
1.29431855473058
526
1.29431321502922
491
1.29430787532786
471
1.29430253562649
435
1.29429719592513
429
1.29429185622377
415
1.2942865165224
420
1.29428117682104
409
1.29427583711967
405
1.29427049741831
397
1.29426515771695
382
1.29425981801558
401
1.29425447831422
396
1.29424913861285
407
1.29424379891149
404
1.29423845921013
393
1.29423311950876
382
1.2942277798074
397
1.29422244010603
410
1.29421710040467
423
1.29421176070331
394
1.29420642100194
441
1.29420108130058
457
1.29419574159921
429
1.29419040189785
462
1.29418506219649
463
1.29417972249512
489
1.29417438279376
460
1.2941690430924
476
1.29416370339103
465
1.29415836368967
495
1.2941530239883
497
1.29414768428694
456
1.29414234458558
434
1.29413700488421
431
1.29413166518285
397
1.29412632548148
417
1.29412098578012
405
1.29411564607876
353
1.29411030637739
351
1.29410496667603
359
1.29409962697466
337
1.2940942872733
297
1.29408894757194
302
1.29408360787057
328
1.29407826816921
292
1.29407292846784
318
1.29406758876648
285
1.29406224906512
281
1.29405690936375
270
1.29405156966239
249
1.29404622996103
285
1.29404089025966
266
1.2940355505583
268
1.29403021085693
295
1.29402487115557
264
1.29401953145421
270
1.29401419175284
277
1.29400885205148
270
1.29400351235011
243
1.29399817264875
248
1.29399283294739
240
1.29398749324602
258
1.29398215354466
266
1.29397681384329
248
1.29397147414193
267
1.29396613444057
272
1.2939607947392
285
1.29395545503784
281
1.29395011533648
286
1.29394477563511
272
1.29393943593375
259
1.29393409623238
259
1.29392875653102
288
1.29392341682966
268
1.29391807712829
271
1.29391273742693
266
1.29390739772556
267
1.2939020580242
272
1.29389671832284
264
1.29389137862147
267
1.29388603892011
285
1.29388069921874
297
1.29387535951738
307
1.29387001981602
303
1.29386468011465
294
1.29385934041329
302
1.29385400071192
296
1.29384866101056
305
1.2938433213092
307
1.29383798160783
318
1.29383264190647
350
1.29382730220511
338
1.29382196250374
331
1.29381662280238
356
1.29381128310101
369
1.29380594339965
390
1.29380060369829
378
1.29379526399692
375
1.29378992429556
383
1.29378458459419
368
1.29377924489283
373
1.29377390519147
414
1.2937685654901
401
1.29376322578874
412
1.29375788608737
424
1.29375254638601
432
1.29374720668465
419
1.29374186698328
408
1.29373652728192
442
1.29373118758056
413
1.29372584787919
391
1.29372050817783
381
1.29371516847646
385
1.2937098287751
376
1.29370448907374
379
1.29369914937237
359
1.29369380967101
359
1.29368846996964
361
1.29368313026828
335
1.29367779056692
343
1.29367245086555
337
1.29366711116419
312
1.29366177146282
322
1.29365643176146
303
1.2936510920601
325
1.29364575235873
266
1.29364041265737
297
1.293635072956
282
1.29362973325464
271
1.29362439355328
290
1.29361905385191
282
1.29361371415055
Ti2s
MX-HT 0p5 20Ap
2023
5
9
17
5
6
2
41
Creation
Created by : XPSUser
Date created : 09/05/2023 17:05
Computer : DESKTOP-U3MGE2F
Location
Location ID : H1
Sample : MX-HT 0p5 20Ap
Description : (24.612,15.667,-0.853)mm
Tilt : 0.00
Charge Neutraliser : On
Filament Current : 0.53A
Filament Bias : 2.02V
Charge Balance : 5.02V
Settings
Excitation
Mode : XPS - monochromatic
Tuning : Spectroscopy
Emission current : 15.00mA
Anode library : Al
ESCA modes
Collimation : Slot
Lens : Hybrid
Resolution : 20.00
Scan
Deflection : (0.000, 0.000)mm
Ti2s : 907.690-937.690eV, Sweeps 10
Start : 907.690eV
End : 937.690eV
Centre : 922.690eV
Width : 30.000eV
Step size : 0.100eV
Number Steps : 300
Dwell time : 199ms
Sweep time : 60s
Sweeps : 10
Target quality : 200
Instrument Conditions
Work function : -4.50
Acquisition Conditions
X-ray Power : 225.00W
Quality : 71.50
XPS
10
24.612
15.6667890625
-0.85346875
Al (mono)
1486.69
225
1E+37
1E+37
1E+37
1E+37
FAT
20
1E+37
-4.5
1E+37
1E+37
1E+37
1E+37
1E+37
Ti2s

-1
Kinetic energy
eV
907.69
0.1
2
Intensity
d
Transmission
d
pulse counting
0.199335548172757
10
0
1E+37
1E+37
1E+37
0
602
16146
22722
1.39835656853096
1.40786093570082
19632
1.40786093570082
19596
1.40783040092986
19571
1.40779986615891
19583
1.40776933138795
19413
1.40773879661699
19375
1.40770826184604
19454
1.40767772707508
19630
1.40764719230412
19481
1.40761665753316
19635
1.40758612276221
19435
1.40755558799125
19603
1.40752505322029
19618
1.40749451844934
19416
1.40746398367838
19532
1.40743344890742
19516
1.40740291413646
19641
1.40737237936551
19575
1.40734184459455
19559
1.40731130982359
19669
1.40728077505264
19462
1.40725024028168
19542
1.40721970551072
19557
1.40718917073976
19535
1.40715863596881
19584
1.40712698331307
19588
1.40709520644792
19495
1.40706342958277
19595
1.40703165271762
19565
1.40699987585246
19464
1.40696809898731
19461
1.40693632212216
19321
1.40690454525701
19462
1.40687276839185
19584
1.4068409915267
19377
1.40680921466155
19450
1.4067774377964
19460
1.40674566093124
19500
1.40671388406609
19531
1.40668210720094
19580
1.40665033033579
19438
1.40661855347063
19357
1.40658677660548
19508
1.40655499974033
19300
1.40652322287517
19391
1.40649144601002
19246
1.40645966914487
19462
1.40642789227972
19285
1.40639611541456
19245
1.40636433854941
19269
1.40633256168426
19518
1.40630078481911
19241
1.40626900795395
19294
1.4062372310888
19345
1.40620545422365
19347
1.4061736773585
19161
1.40614190049334
19196
1.40611012362819
19159
1.40607834676304
19221
1.40604656989789
19095
1.40601479303273
19245
1.40598301616758
19188
1.40595123930243
19338
1.40591946243728
19223
1.40588768557212
19143
1.40585590870697
19044
1.40582413184182
18948
1.40579235497667
19102
1.40576057811151
19120
1.40572880124636
18960
1.40569702438121
19027
1.40566524751605
19021
1.4056334706509
18960
1.40560169378575
18850
1.4055699169206
19029
1.40553814005544
18837
1.40550636319029
18976
1.40547458632514
19037
1.40544280945999
19075
1.40541103259483
19007
1.40537925572968
19029
1.40534747886453
19061
1.40531570199938
19136
1.40528392513422
18809
1.40525214826907
18904
1.40522037140392
18820
1.40518859453877
18938
1.40515681767361
19094
1.40512504080846
18891
1.40509326394331
19152
1.40506148707816
18958
1.405029710213
18834
1.40499793334785
18809
1.4049661564827
18902
1.40493437961755
18967
1.40490260275239
18959
1.40487082588724
18978
1.40483904902209
19031
1.40480727215694
19239
1.40477549529178
19156
1.40474371842663
19201
1.40471194156148
19271
1.40468016469632
18916
1.40464838783117
19196
1.40461661096602
19215
1.40458483410087
19098
1.40455305723571
19364
1.40452128037056
19307
1.40448950350541
19198
1.40445772664026
19358
1.4044259497751
19256
1.40439417290995
19452
1.4043623960448
19347
1.40433061917965
19408
1.40429884231449
19562
1.40426706544934
19626
1.40423528858419
19629
1.40420351171904
19570
1.40417173485388
19830
1.40413995798873
19841
1.40410818112358
19961
1.40407640425843
19811
1.40404462739327
19975
1.40401285052812
19965
1.40398107366297
20015
1.40394929679782
20025
1.40391751993266
20099
1.40388574306751
20322
1.40385396620236
20444
1.40382218933721
20365
1.40379041247205
20314
1.4037586356069
20244
1.40372685874175
20336
1.40369508187659
20651
1.40366330501144
20712
1.40363152814629
20562
1.40359975128114
20968
1.40356797441598
20904
1.40353619755083
20912
1.40350442068568
20787
1.40347264382053
21119
1.40344086695537
21353
1.40340909009022
21310
1.40337731322507
21467
1.40334553635992
21444
1.40331375949476
21308
1.40328198262961
21538
1.40325020576446
21428
1.40321842889931
21804
1.40318665203415
21727
1.403154875169
21577
1.40312309830385
21511
1.4030913214387
21840
1.40305954457354
22022
1.40302776770839
21994
1.40299599084324
22004
1.40296421397809
21998
1.40293243711293
22129
1.40290066024778
22268
1.40286888338263
22138
1.40283710651747
22506
1.40280532965232
22440
1.40277355278717
22675
1.40274177592202
22508
1.40270999905686
22498
1.40267822219171
22649
1.40264644532656
22696
1.40261466846141
22706
1.40258289159625
22613
1.4025511147311
22464
1.40251933786595
22455
1.4024875610008
22695
1.40245578413564
22616
1.40242400727049
22672
1.40239223040534
22689
1.40236045354019
22333
1.40232867667503
22722
1.40229689980988
22547
1.40226512294473
22346
1.40223334607958
22294
1.40220156921442
21911
1.40216979234927
21912
1.40213801548412
21761
1.40210623861897
21854
1.40207446175381
21751
1.40204268488866
21497
1.40201090802351
21447
1.40197913115836
21391
1.4019473542932
21078
1.40191557742805
20979
1.4018838005629
20748
1.40185202369774
20378
1.40182024683259
20297
1.40178846996744
20075
1.40175669310229
19763
1.40172491623713
19932
1.40169313937198
19751
1.40166136250683
19391
1.40162958564168
19561
1.40159780877652
19395
1.40156603191137
19335
1.40153425504622
19176
1.40150247818107
19075
1.40147070131591
19038
1.40143892445076
18950
1.40140714758561
18657
1.40137537072046
18523
1.4013435938553
18582
1.40131181699015
18365
1.401280040125
18359
1.40124826325985
18237
1.40121648639469
18294
1.40118470952954
18037
1.40115293266439
18071
1.40112115579924
18142
1.40108937893408
17867
1.40105760206893
17911
1.40102582520378
17774
1.40099404833863
17751
1.40096227147347
17647
1.40093049460832
17538
1.40089871774317
17455
1.40086694087801
17459
1.40083516401286
17555
1.40080338714771
17486
1.40077161028256
17286
1.4007398334174
17283
1.40070805655225
17504
1.4006762796871
17450
1.40064450282195
17217
1.40061272595679
17338
1.40058094909164
17341
1.40054917222649
17183
1.40051739536134
17117
1.40048561849618
17148
1.40045384163103
17030
1.40042206476588
17052
1.40039028790073
17146
1.40035851103557
17114
1.40032673417042
17178
1.40029495730527
17237
1.40026318044012
17102
1.40023140357496
16999
1.40019962670981
17063
1.40016784984466
16852
1.40013607297951
16827
1.40010429611435
17091
1.4000725192492
16994
1.40004074238405
16873
1.40000896551889
16745
1.39997718865374
16731
1.39994541178859
16841
1.39991363492344
17005
1.39988185805828
16903
1.39985008119313
16966
1.39981830432798
16729
1.39978652746283
16666
1.39975475059767
16749
1.39972297373252
16655
1.39969119686737
16914
1.39965942000222
16776
1.39962764313706
16772
1.39959586627191
16801
1.39956408940676
16812
1.39953231254161
16795
1.39950053567645
16695
1.3994687588113
16521
1.39943698194615
16530
1.399405205081
16610
1.39937342821584
16815
1.39934165135069
16614
1.39930987448554
16680
1.39927809762039
16547
1.39924632075523
16579
1.39921454389008
16640
1.39918276702493
16592
1.39915099015978
16556
1.39911921329462
16599
1.39908743642947
16675
1.39905565956432
16795
1.39902388269916
16599
1.39899210583401
16471
1.39896032896886
16390
1.39892855210371
16559
1.39889677523855
16298
1.3988649983734
16413
1.39883322150825
16485
1.3988014446431
16365
1.39876966777794
16386
1.39873789091279
16475
1.39870611404764
16271
1.39867433718249
16322
1.39864256031733
16306
1.39861078345218
16267
1.39857900658703
16370
1.39854722972188
16510
1.39851545285672
16349
1.39848367599157
16288
1.39845189912642
16146
1.39842012226127
16396
1.39838834539611
16447
1.39835656853096
end of experiment
