VAMAS Surface Chemical Analysis Standard Data Transfer Format 1988 May 4
Not specified
MI-600-BE9240AA
XPSUser
KTH Amireza_C-paper-Mxene-sample sent on 17 April2023.experiment
0
NORM
REGULAR
1
4
Index
d
PositionX [mm]
n
PositionY [mm]
n
PositionZ [mm]
n
0
0
0
0
10
wide
MX-HT 0p1 20Ap
2023
5
9
14
56
9
2
39
Creation
Created by : XPSUser
Date created : 09/05/2023 14:56
Computer : DESKTOP-U3MGE2F
Location
Location ID : X1
Sample : MX-HT 0p1 20Ap
Description : (55.384,14.627,-0.798)mm
Tilt : 0.00
Charge Neutraliser : On
Filament Current : 0.53A
Filament Bias : 2.02V
Charge Balance : 5.02V
Settings
Excitation
Mode : XPS - monochromatic
Tuning : Spectroscopy
Emission current : 15.00mA
Anode library : Al
ESCA modes
Collimation : Slot
Lens : Hybrid
Resolution : 160.00
Scan
Deflection : (0.000, 0.000)mm
wide : 286.690-1491.690eV, Sweeps 5
Start : 286.690eV
End : 1491.690eV
Centre : 889.190eV
Width : 1205.000eV
Step size : 1.000eV
Number Steps : 1205
Dwell time : 100ms
Sweep time : 120s
Sweeps : 5
Instrument Conditions
Work function : -4.50
Acquisition Conditions
X-ray Power : 225.00W
XPS
1
55.38425
14.626890625
-0.7984765625
Al (mono)
1486.69
225
1E+37
1E+37
1E+37
1E+37
FAT
160
1E+37
-4.5
1E+37
1E+37
1E+37
1E+37
1E+37
wide

-1
Kinetic energy
eV
286.69
1
2
Intensity
d
Transmission
d
pulse counting
0.0995024875621891
5
0
1E+37
1E+37
1E+37
0
2412
6
166501
31.1899525550317
34.3842158080476
55185
31.3831160809299
55063
31.3957804233785
55182
31.4084447658271
55186
31.4211091082757
55484
31.4337734507243
55123
31.4464377931729
54944
31.4591021356215
55441
31.4717664780701
56002
31.4844308205187
55734
31.4970951629673
55981
31.5097595054159
55913
31.5224238478645
56250
31.5350881903131
56327
31.5477525327617
56280
31.5604168752103
56594
31.5730812176589
56877
31.5857455601075
56442
31.5984099025561
56841
31.6110742450047
57456
31.6237385874533
57237
31.6364029299019
57499
31.6490672723505
57894
31.6617316147991
58221
31.6743959572477
57953
31.6831677063262
58398
31.6901906091079
58601
31.6972135118896
58101
31.7042364146713
57991
31.711259317453
58428
31.7182822202348
58767
31.7253051230165
58915
31.7323280257982
58469
31.7393509285799
58732
31.7463738313616
59133
31.7533967341433
59451
31.760419636925
59975
31.7674425397068
60100
31.7744654424885
60450
31.7814883452702
60374
31.7885112480519
60315
31.7955341508336
60603
31.8025570536153
61156
31.809579956397
61473
31.8166028591787
61860
31.8236257619605
61605
31.8306486647422
62164
31.8376715675239
62234
31.8446944703056
61910
31.8517173730873
61559
31.858740275869
62331
31.8657631786507
62243
31.8727860814324
62304
31.8798089842142
62310
31.8868318869959
62510
31.8938547897776
62163
31.9008776925593
62161
31.907900595341
62306
31.9149234981227
62739
31.9219464009044
62860
31.9289693036862
62767
31.9359922064679
62689
31.9430151092496
63140
31.9500380120313
63893
31.957060914813
64367
31.9640838175947
65243
31.9711067203764
65687
31.9781296231581
66028
31.9851525259399
66384
31.9921754287216
66309
31.9991983315033
66303
32.006221234285
66196
32.0132441370667
65529
32.0202670398484
66061
32.0272899426301
66677
32.032304243533
66875
32.0364161290989
67143
32.0405280146649
66947
32.0446399002308
67612
32.0487517857968
67028
32.0528636713627
66394
32.0569755569286
65579
32.0610874424946
65498
32.0651993280605
65523
32.0693112136265
65623
32.0734230991924
66378
32.0775349847584
67067
32.0816468703243
67234
32.0857587558902
68184
32.0898706414562
69074
32.0939825270221
69760
32.0980944125881
70546
32.102206298154
71326
32.10631818372
73005
32.1104300692859
74473
32.1145419548519
75773
32.1186538404178
77278
32.1227657259837
76871
32.1268776115497
75131
32.1309894971156
73553
32.1351013826816
72015
32.1392132682475
71248
32.1433251538135
68870
32.1474370393794
64487
32.1515489249454
60472
32.1556608105113
57446
32.1597726960772
55962
32.1638845816432
54830
32.1679964672091
54037
32.1721083527751
53088
32.176220238341
52665
32.180332123907
52303
32.1844440094729
51837
32.1885558950389
51896
32.1926677806048
51525
32.1967796661707
51148
32.2008915517367
51231
32.2050034373026
50968
32.2091153228686
51347
32.2132272084345
51740
32.2173390940005
51506
32.2214509795664
51989
32.2255628651324
52159
32.2296747506983
52784
32.2337866362642
53244
32.2385797052662
53699
32.2436788132032
54587
32.2487779211402
55113
32.2538770290771
56124
32.2589761370141
57680
32.2640752449511
58947
32.2691743528881
59459
32.274273460825
59236
32.279372568762
58419
32.284471676699
57009
32.289570784636
54874
32.2946698925729
52094
32.2997690005099
49671
32.3048681084469
48787
32.3099672163839
47804
32.3150663243208
47491
32.3201654322578
47121
32.3252645401948
47122
32.3303636481318
46979
32.3354627560687
46630
32.3405618640057
46942
32.3456609719427
47167
32.3507600798797
46780
32.3558591878166
46859
32.3609582957536
46829
32.3660574036906
46884
32.3711565116276
46947
32.3762556195646
47361
32.3813547275015
47535
32.3864538354385
47293
32.3915529433755
47499
32.3966520513125
47593
32.4017511592494
47821
32.4068502671864
47762
32.4119493751234
47878
32.4170484830604
47921
32.4221475909973
47984
32.4272466989343
48591
32.4323458068713
48758
32.4374449148083
49053
32.4425440227452
48741
32.4476431306822
48638
32.4527422386192
48237
32.4578413465562
48419
32.4629404544931
48188
32.4680395624301
48039
32.4731386703671
48034
32.4782377783041
48114
32.483336886241
48023
32.488435994178
48150
32.494755001628
48248
32.5016220798738
48351
32.5084891581195
48471
32.5153562363652
48248
32.522223314611
48699
32.5290903928567
48715
32.5359574711024
48786
32.5428245493482
49090
32.5496916275939
49282
32.5565587058396
48826
32.5634257840853
49362
32.5702928623311
49694
32.5771599405768
49520
32.5840270188225
49310
32.5908940970683
49432
32.597761175314
49460
32.6046282535597
49639
32.6114953318055
49753
32.6183624100512
49950
32.6252294882969
50157
32.6320965665427
50330
32.6389636447884
50197
32.6458307230341
50589
32.6526978012798
50985
32.6595648795256
51362
32.6664319577713
51634
32.673299036017
51713
32.6801661142628
51915
32.6870331925085
52385
32.6939002707542
52516
32.700767349
52554
32.7076344272457
52938
32.7145015054914
52650
32.7213685837372
52555
32.7282356619829
52219
32.7351027402286
51668
32.7419698184744
51287
32.7488368967201
51217
32.7557039749658
50861
32.7625710532116
50714
32.7694381314573
51048
32.776305209703
50995
32.7831722879487
50902
32.7900393661945
51531
32.7969064444402
51789
32.8037735226859
52473
32.8106406009317
53216
32.8175076791774
54455
32.8243747574231
56091
32.8312418356689
58075
32.8365010348683
59301
32.8410378536267
59953
32.8455746723852
59525
32.8501114911436
59188
32.854648309902
57343
32.8591851286604
54569
32.8637219474188
51546
32.8682587661772
50180
32.8727955849356
48755
32.877332403694
47874
32.8818692224524
47242
32.8864060412108
46370
32.8909428599692
45962
32.8954796787276
45780
32.900016497486
45825
32.9045533162444
45402
32.9090901350029
45365
32.9136269537613
45384
32.9181637725197
45391
32.9227005912781
45408
32.9272374100365
45589
32.9317742287949
45182
32.9363110475533
45660
32.9408478663117
45420
32.9453846850701
45471
32.9499215038285
45416
32.9544583225869
45953
32.9589951413453
45859
32.9635319601037
46137
32.9680687788622
45588
32.9726055976206
45813
32.977142416379
45646
32.9816792351374
45621
32.9862160538958
45767
32.9907528726542
45804
32.9952896914126
45861
32.999826510171
46252
33.0043633289294
46094
33.0089001476878
46419
33.0134369664462
46046
33.0179737852046
46306
33.022510603963
46344
33.0270474227215
46330
33.0315842414799
46160
33.0361210602383
46367
33.0406578789967
46895
33.0451946977551
46660
33.0497315165135
46837
33.0542683352719
46756
33.0588051540303
46668
33.0651513369735
46668
33.0723104226664
47173
33.0794695083592
46955
33.0866285940521
46677
33.093787679745
47154
33.1009467654379
47565
33.1081058511307
47295
33.1152649368236
47357
33.1224240225165
47259
33.1295831082094
47714
33.1367421939023
47784
33.1439012795951
47437
33.151060365288
47796
33.1582194509809
47596
33.1653785366737
47544
33.1725376223666
47963
33.1796967080595
47923
33.1868557937524
47797
33.1940148794453
47971
33.2011739651381
47929
33.208333050831
47903
33.2154921365239
48303
33.2226512222168
48150
33.2298103079096
47916
33.2369693936025
48419
33.2441284792954
48786
33.2512875649883
48343
33.2584466506811
48506
33.265605736374
48329
33.2727648220669
48424
33.2799239077598
48710
33.2870829934526
49093
33.2942420791455
49197
33.3014011648384
48980
33.3085602505313
48691
33.3157193362241
49186
33.322878421917
48897
33.3300375076099
49133
33.3371965933028
49366
33.3443556789956
49464
33.3515147646885
49506
33.3586738503814
49589
33.3658329360743
49493
33.3729920217671
49755
33.38015110746
49964
33.3873101931529
49763
33.3944692788458
50255
33.4016283645386
50043
33.4087874502315
50443
33.4159465359244
50423
33.4215617399715
50666
33.4264833160328
50942
33.4314048920942
50660
33.4363264681555
50584
33.4412480442168
50788
33.4461696202781
50546
33.4510911963395
50274
33.4560127724008
50036
33.4609343484621
50286
33.4658559245234
50315
33.4707775005848
50310
33.4756990766461
50414
33.4806206527074
50838
33.4855422287687
50781
33.4904638048301
50808
33.4953853808914
51023
33.5003069569527
51397
33.505228533014
51988
33.5101501090754
52165
33.5150716851367
52742
33.519993261198
53171
33.5249148372594
53592
33.5298364133207
52943
33.534757989382
52121
33.5396795654433
51797
33.5446011415047
51306
33.549522717566
50965
33.5544442936273
51016
33.5593658696886
51762
33.56428744575
51998
33.5692090218113
51917
33.5741305978726
51697
33.5790521739339
51533
33.5839737499953
51374
33.5888953260566
51369
33.5938169021179
51190
33.5987384781792
51389
33.6036600542406
51605
33.6085816303019
52040
33.6135032063632
52488
33.6184247824245
52915
33.6233463584859
53512
33.6282679345472
53943
33.6331895106085
54196
33.6381110866699
55264
33.6430326627312
56539
33.6479542387925
58126
33.6528758148538
60759
33.6577973909152
61622
33.6627189669765
57053
33.6645745904842
52206
33.6650527570474
50819
33.6655309236107
50408
33.666009090174
50011
33.6664872567373
49577
33.6669654233006
49597
33.6674435898639
50328
33.6679217564272
50245
33.6683999229904
49946
33.6688780895537
50062
33.669356256117
50299
33.6698344226803
50469
33.6703125892436
50644
33.6707907558069
50324
33.6712689223702
50177
33.6717470889334
50542
33.6722252554967
50536
33.67270342206
50203
33.6731815886233
50319
33.6736597551866
51089
33.6741379217499
50917
33.6746160883132
50425
33.6750942548764
50539
33.6755724214397
50350
33.676050588003
50956
33.6765287545663
50741
33.6770069211296
50669
33.6774850876929
50806
33.6779632542562
51227
33.6784414208194
51121
33.6789195873827
51130
33.679397753946
51242
33.6798759205093
50819
33.6803540870726
51190
33.6808322536359
51189
33.6813104201992
51203
33.6817885867624
51134
33.6822667533257
51464
33.682744919889
51551
33.6832230864523
51819
33.682417625678
51501
33.6810354627665
51317
33.679653299855
51436
33.6782711369435
51594
33.676888974032
51805
33.6755068111205
51939
33.674124648209
52074
33.6727424852975
52032
33.671360322386
52150
33.6699781594745
51867
33.668595996563
52001
33.6672138336515
52246
33.6658316707399
52136
33.6644495078284
52360
33.6630673449169
52447
33.6616851820054
52507
33.6603030190939
52480
33.6589208561824
52487
33.6575386932709
52511
33.6561565303594
52466
33.6547743674479
52583
33.6533922045364
53089
33.6520100416249
53018
33.6506278787134
52774
33.6492457158019
52982
33.6478635528904
53162
33.6464813899789
53132
33.6450992270674
53071
33.6437170641559
52979
33.6423349012444
53578
33.6409527383329
53399
33.6395705754214
53534
33.6381884125099
53682
33.6368062495984
53334
33.6354240866869
53391
33.6340419237754
53516
33.6326597608639
53572
33.6312775979524
53681
33.6298954350409
53744
33.6285132721294
53705
33.6271311092179
53952
33.6257489463064
53832
33.6243667833949
54119
33.6229846204834
54394
33.6216024575719
54212
33.6202202946604
54489
33.6188381317489
54239
33.6174559688374
54354
33.6160738059259
54772
33.6146916430143
54596
33.6133094801028
54536
33.6119273171913
54856
33.6105451542798
55097
33.6091629913683
54988
33.6077808284568
54898
33.6063986655453
55085
33.6050165026338
55081
33.6036343397223
55064
33.6022521768108
54963
33.6008700138993
54959
33.6049684028743
55005
33.6115290687839
54632
33.6180897346934
54878
33.6246504006029
54972
33.6312110665124
54891
33.637771732422
55299
33.6443323983315
55558
33.650893064241
55489
33.6574537301505
55221
33.6640143960601
55879
33.6705750619696
55919
33.6771357278791
56102
33.6836963937887
56255
33.6902570596982
56228
33.6968177256077
56409
33.7033783915172
56652
33.7099390574268
56941
33.7164997233363
57052
33.7230603892458
56932
33.7296210551553
56943
33.7361817210649
56684
33.7427423869744
56680
33.7493030528839
56362
33.7558637187934
56006
33.762424384703
55963
33.7689850506125
55499
33.775545716522
55829
33.7821063824316
56037
33.7886670483411
56233
33.7952277142506
56324
33.8017883801601
55689
33.8083490460697
55869
33.8149097119792
55977
33.8214703778887
56201
33.8280310437982
56365
33.8345917097078
56504
33.8411523756173
57083
33.8477130415268
57794
33.8542737074363
59232
33.8608343733459
62709
33.8673950392554
71799
33.8739557051649
75384
33.8805163710744
66688
33.887077036984
58316
33.8936377028935
56141
33.900198368803
55507
33.9067590347126
55343
33.9133197006221
55597
33.9198803665316
55612
33.9264410324411
55827
33.9270445296009
55784
33.9249716176123
55378
33.9228987056237
55547
33.920825793635
55848
33.9187528816464
55754
33.9166799696578
55643
33.9146070576691
55615
33.9125341456805
56066
33.9104612336919
56379
33.9083883217032
56370
33.9063154097146
56251
33.904242497726
56376
33.9021695857373
56329
33.9000966737487
56511
33.8980237617601
56551
33.8959508497714
56610
33.8938779377828
56751
33.8918050257942
56895
33.8897321138055
56674
33.8876592018169
57144
33.8855862898283
56852
33.8835133778396
57225
33.881440465851
57092
33.8793675538624
57174
33.8772946418737
57391
33.8752217298851
57051
33.8731488178965
57309
33.8710759059078
57594
33.8690029939192
57353
33.8669300819306
57345
33.8648571699419
57668
33.8627842579533
57718
33.8607113459647
57759
33.858638433976
57887
33.8565655219874
57901
33.8544926099988
58320
33.8524196980101
58089
33.8503467860215
58398
33.8482738740329
58361
33.8462009620443
58165
33.8441280500556
58405
33.842055138067
58579
33.8399822260783
58328
33.8379093140897
58602
33.8358364021011
59263
33.8337634901125
59417
33.8316905781238
59132
33.8296176661352
59369
33.8275447541466
59444
33.8254718421579
59467
33.8233989301693
59454
33.8213260181807
59589
33.819253106192
59431
33.8171801942034
59453
33.8151072822148
60005
33.8130343702261
59864
33.8109614582375
59978
33.8088885462489
60002
33.8068156342602
60210
33.8047427222716
60346
33.807887204429
60561
33.8133757332318
61045
33.8188642620345
60848
33.8243527908372
60752
33.82984131964
60806
33.8353298484427
60976
33.8408183772455
60937
33.8463069060482
60456
33.851795434851
61307
33.8572839636537
61224
33.8627724924565
61086
33.8682610212592
61243
33.873749550062
61228
33.8792380788647
61278
33.8847266076675
61134
33.8902151364702
61354
33.8957036652729
61664
33.9011921940757
62277
33.9066807228784
62065
33.9121692516812
62357
33.9176577804839
62309
33.9231463092867
62383
33.9286348380894
62654
33.9341233668922
62573
33.9396118956949
62716
33.9451004244977
63142
33.9505889533004
63473
33.9560774821032
63561
33.9615660109059
63575
33.9670545397086
64229
33.9725430685114
64510
33.9780315973141
64578
33.9835201261169
64833
33.9890086549196
64828
33.9944971837224
65076
33.9999857125251
65083
34.0054742413279
65302
34.0109627701306
65465
34.0164512989334
65468
34.0219398277361
65090
34.0200714354915
64967
34.0148977598779
65001
34.0097240842642
64840
34.0045504086505
65069
33.9993767330369
64755
33.9942030574232
64790
33.9890293818095
65028
33.9838557061959
65598
33.9786820305822
66976
33.9735083549685
68028
33.9683346793549
69811
33.9631610037412
70828
33.9579873281276
72120
33.9528136525139
72160
33.9476399769002
71817
33.9424663012866
69587
33.9372926256729
66848
33.9321189500592
64221
33.9269452744456
62593
33.9217715988319
61467
33.9165979232182
60875
33.9114242476046
60502
33.9062505719909
59944
33.9010768963772
59704
33.8959032207636
59747
33.8907295451499
58867
33.8855558695362
58450
33.8803821939226
58491
33.8752085183089
58716
33.8700348426952
58696
33.8648611670816
58886
33.8596874914679
58797
33.8545138158542
58690
33.8493401402406
58331
33.8441664646269
58022
33.8389927890133
57853
33.8338191133996
57910
33.8286454377859
57556
33.8234717621723
57732
33.8182980865586
58561
33.8131244109449
59522
33.8079507353313
62065
33.8027770597176
67338
33.7976033841039
74386
33.7924297084903
80268
33.7872560328766
84385
33.7820823572629
79630
33.7769086816493
66271
33.7717350060356
57099
33.7665613304219
54694
33.7613876548083
54336
33.7562139791946
54526
33.751040303581
54510
33.7458666279673
53911
33.7406929523536
53967
33.73551927674
54345
33.7303456011263
54121
33.7251719255126
54037
33.719998249899
54259
33.7148245742853
54362
33.7153044657385
54420
33.7183243655841
54401
33.7213442654296
55042
33.7243641652752
54809
33.7273840651207
54976
33.7304039649663
55321
33.7334238648118
55176
33.7364437646574
55510
33.739463664503
55584
33.7424835643485
55594
33.7455034641941
55545
33.7485233640396
55924
33.7515432638852
56043
33.7545631637308
55399
33.7575830635763
55655
33.7606029634219
55373
33.7636228632674
55374
33.766642763113
55490
33.7696626629586
54962
33.7726825628041
55084
33.7757024626497
55347
33.7787223624952
56034
33.7817422623408
55788
33.7847621621864
55746
33.7877820620319
56297
33.7908019618775
57012
33.793821861723
56725
33.7968417615686
57479
33.7998616614141
58057
33.8028815612597
58232
33.8059014611053
58845
33.8089213609508
59304
33.8119412607964
60009
33.8149611606419
59966
33.8179810604875
60464
33.8210009603331
60817
33.8240208601786
61175
33.8270407600242
61192
33.8300606598697
61335
33.8330805597153
61483
33.834824515171
61357
33.8359952202486
61208
33.8371659253262
61076
33.8383366304037
61251
33.8395073354813
61047
33.8406780405589
60310
33.8418487456365
59682
33.8430194507141
59206
33.8441901557917
59849
33.8453608608693
60602
33.8465315659469
62783
33.8477022710245
65444
33.8488729761021
67579
33.8500436811797
71288
33.8512143862573
74994
33.8523850913349
75104
33.8535557964125
73537
33.8547265014901
73387
33.8558972065677
73520
33.8570679116453
80615
33.8582386167229
87295
33.8594093218005
74748
33.8605800268781
50850
33.8617507319557
38405
33.8629214370332
35904
33.8640921421108
35528
33.8652628471884
35224
33.866433552266
35173
33.8676042573436
34692
33.8687749624212
34682
33.8699456674988
34574
33.8711163725764
34645
33.872287077654
34626
33.8734577827316
34776
33.8746284878092
34706
33.8757991928868
34755
33.8769698979644
34543
33.878140603042
34535
33.8793113081196
34859
33.8804820131972
34650
33.8816527182748
34683
33.8828234233524
34585
33.88399412843
34841
33.8851648335076
34777
33.8863355385851
34668
33.8875062436627
34641
33.8886769487403
34859
33.8898476538179
34940
33.8910183588955
34940
33.8921890639731
34719
33.8955821738059
34676
33.8999737553402
34913
33.9043653368745
34838
33.9087569184088
34957
33.9131484999432
35108
33.9175400814775
34927
33.9219316630118
34927
33.9263232445461
34976
33.9307148260804
34955
33.9351064076148
34869
33.9394979891491
34785
33.9438895706834
34975
33.9482811522177
35311
33.9526727337521
34941
33.9570643152864
34795
33.9614558968207
35008
33.965847478355
35006
33.9702390598894
34740
33.9746306414237
35195
33.979022222958
35236
33.9834138044923
35418
33.9878053860267
35644
33.992196967561
35579
33.9965885490953
36013
34.0009801306296
36239
34.005371712164
36309
34.0097632936983
36070
34.0141548752326
35694
34.0185464567669
35477
34.0229380383012
35404
34.0273296198356
35247
34.0317212013699
35218
34.0361127829042
35143
34.0405043644385
35084
34.0448959459729
35281
34.0492875275072
35405
34.0536791090415
35173
34.0580706905758
35330
34.0624622721102
35387
34.0668538536445
35579
34.0592742513371
35479
34.0463162910719
35558
34.0333583308066
35427
34.0204003705414
35570
34.0074424102761
35610
33.9944844500109
35722
33.9815264897456
35444
33.9685685294804
35500
33.9556105692152
35735
33.9426526089499
35765
33.9296946486847
35920
33.9167366884194
35891
33.9037787281542
35761
33.8908207678889
35469
33.8778628076237
35812
33.8649048473584
35916
33.8519468870932
35672
33.838988926828
35853
33.8260309665627
35887
33.8130730062975
35810
33.8001150460322
35585
33.787157085767
35950
33.7741991255017
35892
33.7612411652365
35708
33.7482832049712
35833
33.735325244706
36002
33.7223672844408
35486
33.7094093241755
35704
33.6964513639103
35945
33.683493403645
36332
33.6705354433798
36279
33.6575774831145
36015
33.6446195228493
36297
33.631661562584
36660
33.6187036023188
36836
33.6057456420535
36794
33.5927876817883
36904
33.5798297215231
36816
33.5668717612578
36959
33.5539138009926
36794
33.5409558407273
36981
33.5279978804621
37199
33.5150399201968
36929
33.5020819599316
36916
33.4891239996663
37114
33.4761660394011
37173
33.4632080791359
36598
33.4502501188706
36249
33.4372921586054
35998
33.4243341983401
35885
33.4113762380749
35883
33.3984182778096
35281
33.3854603175444
35289
33.3725023572791
35318
33.3595443970139
34888
33.3465864367487
34757
33.3336284764834
35238
33.3206705162182
34999
33.3077125559529
35129
33.2947545956877
35726
33.2817966354224
36045
33.2688386751572
36780
33.2558807148919
37219
33.2429227546267
37579
33.2299647943615
38257
33.2170068340962
38953
33.204048873831
39499
33.1910909135657
39790
33.1781329533005
40332
33.1651749930352
40473
33.15221703277
40066
33.1392590725047
40410
33.1263011122395
40202
33.1133431519743
40090
33.100385191709
39927
33.0874272314438
38896
33.0744692711785
37898
33.0615113109133
36244
33.048553350648
34255
33.0355953903828
32480
33.0226374301175
31086
33.0096794698523
29125
32.9967215095871
27690
32.9837635493218
25858
32.9708055890566
24253
32.9578476287913
22755
32.9448896685261
22027
32.9319317082608
21324
32.9189737479956
21459
32.9060157877303
21829
32.9160162601181
22773
32.9363313906542
24516
32.9566465211904
26582
32.9769616517265
29370
32.9972767822627
33056
33.0175919127988
36015
33.037907043335
37086
33.0582221738711
38424
33.0785373044073
42130
33.0988524349434
53920
33.1191675654796
87351
33.1394826960157
166501
33.1597978265519
150699
33.180112957088
58658
33.2004280876242
21125
33.2207432181603
12719
33.2410583486965
6917
33.2613734792326
5391
33.2816886097688
4866
33.3020037403049
4659
33.3223188708411
4417
33.3426340013772
4425
33.3629491319134
4462
33.3832642624495
4479
33.4035793929856
4761
33.4238945235218
5128
33.4442096540579
5109
33.4645247845941
4904
33.4848399151303
4484
33.5051550456664
4315
33.5254701762026
4191
33.5457853067387
4109
33.5661004372748
4123
33.586415567811
4187
33.6067306983471
4159
33.6270458288833
4074
33.6473609594195
4068
33.6676760899556
4143
33.6879912204917
4161
33.7083063510279
4185
33.728621481564
4206
33.7489366121002
4246
33.7692517426363
4254
33.7895668731725
4119
33.8098820037086
4142
33.8301971342448
4191
33.8505122647809
4283
33.8708273953171
4189
33.8911425258532
4113
33.9114576563894
4246
33.9231372000242
4274
33.930936987225
4212
33.9387367744258
4293
33.9465365616266
4224
33.9543363488275
4248
33.9621361360283
4091
33.9699359232291
4199
33.9777357104299
4204
33.9855354976308
4143
33.9933352848316
4109
34.0011350720324
4140
34.0089348592332
4173
34.0167346464341
4314
34.0245344336349
4345
34.0323342208357
4238
34.0401340080365
4313
34.0479337952374
4330
34.0557335824382
4229
34.063533369639
4291
34.0713331568398
4390
34.0791329440407
4473
34.0869327312415
4390
34.0947325184423
4392
34.1025323056431
4372
34.110332092844
4257
34.1181318800448
4344
34.1259316672456
4435
34.1337314544464
4408
34.1415312416473
4324
34.1493310288481
4424
34.1571308160489
4291
34.1649306032497
4298
34.1727303904506
4397
34.1805301776514
4372
34.1883299648522
4331
34.196129752053
4300
34.2039295392539
4342
34.2117293264547
4396
34.2195291136555
4344
34.2273289008563
4326
34.2351286880572
4340
34.242928475258
4398
34.2507282624588
4545
34.2585280496596
4670
34.2663278368604
5107
34.2741276240613
5806
34.2819274112621
6133
34.2897271984629
6117
34.2975269856638
5102
34.3053267728646
4455
34.3131265600654
4283
34.3209263472662
4219
34.328726134467
4195
34.3365259216679
4328
34.3443257088687
4304
34.3521254960695
4236
34.3599252832703
4318
34.3677250704712
4331
34.375524857672
4264
34.3833246448728
4274
34.3842158080476
4245
34.38200309666
4236
34.3797903852724
4297
34.3775776738847
4317
34.3753649624971
4348
34.3731522511095
4315
34.3709395397218
4357
34.3687268283342
4448
34.3665141169466
4438
34.364301405559
4414
34.3620886941713
4336
34.3598759827837
4329
34.3576632713961
4451
34.3554505600085
4349
34.3532378486208
4399
34.3510251372332
4517
34.3488124258456
4384
34.3465997144579
4521
34.3443870030703
4390
34.3421742916827
4414
34.3399615802951
4479
34.3377488689074
4442
34.3355361575198
4511
34.3333234461322
4581
34.3311107347446
4553
34.3288980233569
4568
34.3266853119693
4574
34.3244726005817
4558
34.3222598891941
4476
34.3200471778064
4555
34.3178344664188
4688
34.3156217550312
4836
34.3134090436435
4902
34.3111963322559
4945
34.3089836208683
4874
34.3067709094807
4737
34.304558198093
4686
34.3023454867054
4528
34.3001327753178
4515
34.2979200639301
4582
34.2957073525425
4607
34.2934946411549
4685
34.2912819297673
4638
34.2890692183796
4653
34.286856506992
4735
34.2846437956044
4758
34.2824310842168
4767
34.2802183728291
4735
34.2780056614415
4699
34.2757929500539
4650
34.2735802386662
4733
34.2713675272786
4780
34.269154815891
4818
34.2669421045034
4857
34.2647293931157
4788
34.2625166817281
4795
34.2462098704746
4769
34.2235709273972
4752
34.2009319843199
4780
34.1782930412425
4875
34.1556540981652
4841
34.1330151550878
4950
34.1103762120104
4892
34.0877372689331
4835
34.0650983258557
4983
34.0424593827784
4869
34.019820439701
4877
33.9971814966237
4997
33.9745425535463
5061
33.951903610469
4950
33.9292646673916
5084
33.9066257243143
5110
33.8839867812369
5107
33.8613478381595
5033
33.8387088950822
5075
33.8160699520048
5027
33.7934310089275
5074
33.7707920658501
5142
33.7481531227728
5204
33.7255141796954
5130
33.7028752366181
5237
33.6802362935407
5194
33.6575973504633
5363
33.634958407386
5565
33.6123194643086
5549
33.5896805212313
5565
33.5670415781539
5328
33.5444026350766
5172
33.5217636919992
5236
33.4991247489219
5094
33.4764858058445
5101
33.4538468627672
5183
33.4312079196898
5109
33.4085689766124
5329
33.3859300335351
5455
33.3632910904577
5541
33.3406521473804
5465
33.318013204303
5592
33.2953742612257
5650
33.2727353181483
5704
33.250096375071
5809
33.2274574319936
5708
33.2048184889163
5706
33.1821795458389
5732
33.1595406027615
5750
33.1369016596842
5792
33.1142627166068
5740
33.0916237735295
5662
33.0689848304521
5735
33.0463458873748
5660
33.0237069442974
5656
33.0010680012201
5704
32.9784290581427
5617
32.9557901150653
5410
32.933151171988
5458
32.9105122289106
5349
32.8878732858333
5348
32.8652343427559
5294
32.8425953996786
5356
32.8199564566012
5494
32.7973175135239
5763
32.7746785704465
6007
32.7520396273692
6549
32.7294006842918
7133
32.7067617412145
7762
32.6841227981371
8274
32.6614838550597
8616
32.6388449119824
7896
32.616205968905
6717
32.5935670258277
5855
32.5709280827503
5496
32.548289139673
5291
32.5256501965956
5259
32.5030112535183
5280
32.4803723104409
5338
32.4577333673635
5247
32.4350944242862
5288
32.4124554812088
5211
32.3898165381315
5022
32.3671775950541
5127
32.3445386519768
5032
32.3218997088994
4996
32.2992607658221
4767
32.2766218227447
4823
32.2539828796674
5128
32.23134393659
5320
32.2087049935126
5752
32.1860660504353
6827
32.1634271073579
8052
32.1407881642806
9126
32.1181492212032
10129
32.0955102781259
10586
32.0728713350485
8811
32.0502323919712
5509
32.0275934488938
3509
32.0049545058164
3012
31.9823155627391
2996
31.9596766196617
2847
31.9370376765844
2585
31.914398733507
2328
31.8917597904297
2308
31.8691208473523
2429
31.846481904275
2602
31.8238429611976
2994
31.8012040181203
3250
31.7785650750429
3227
31.7559261319655
2975
31.7332871888882
2839
31.7106482458108
2686
31.6880093027335
2678
31.6653703596561
2458
31.6427314165788
2249
31.6200924735014
2243
31.5974535304241
2215
31.5748145873467
2142
31.5521756442694
2049
31.529536701192
1991
31.5068977581146
1933
31.4842588150373
1776
31.4616198719599
1634
31.4389809288826
1649
31.4163419858052
1468
31.3937030427279
1128
31.3710640996505
777
31.3484251565732
475
31.3257862134958
193
31.3031472704185
84
31.2805083273411
33
31.2578693842637
11
31.2352304411864
6
31.212591498109
6
31.1899525550317
C 1s
MX-HT 0p1 20Ap
2023
5
9
20
58
22
2
41
Creation
Created by : XPSUser
Date created : 09/05/2023 20:58
Computer : DESKTOP-U3MGE2F
Location
Location ID : X1
Sample : MX-HT 0p1 20Ap
Description : (55.384,14.627,-0.798)mm
Tilt : 0.00
Charge Neutraliser : On
Filament Current : 0.53A
Filament Bias : 2.02V
Charge Balance : 5.02V
Settings
Excitation
Mode : XPS - monochromatic
Tuning : Spectroscopy
Emission current : 15.00mA
Anode library : Al
ESCA modes
Collimation : Slot
Lens : Hybrid
Resolution : 20.00
Scan
Deflection : (0.000, 0.000)mm
C 1s : 1191.690-1209.690eV, Sweeps 1
Start : 1191.690eV
End : 1209.690eV
Centre : 1200.690eV
Width : 18.000eV
Step size : 0.100eV
Number Steps : 180
Dwell time : 331ms
Sweep time : 60s
Sweeps : 1
Target quality : 200
Instrument Conditions
Work function : -4.50
Acquisition Conditions
X-ray Power : 225.00W
Quality : 302.94
XPS
2
55.38425
14.626890625
-0.7984765625
Al (mono)
1486.69
225
1E+37
1E+37
1E+37
1E+37
FAT
20
1E+37
-4.5
1E+37
1E+37
1E+37
1E+37
1E+37
C
1s
-1
Kinetic energy
eV
1191.69
0.1
2
Intensity
d
Transmission
d
pulse counting
0.331492
1
0
1E+37
1E+37
1E+37
0
362
138
20348
1.33571680812406
1.34279197206053
867
1.33571680812406
804
1.33575611459037
804
1.33579542105669
836
1.335834727523
812
1.33587403398932
827
1.33591334045563
824
1.33595264692194
822
1.33599195338826
889
1.33603125985457
906
1.33607056632088
841
1.3361098727872
862
1.33614917925351
897
1.33618848571983
888
1.33622779218614
878
1.33626709865245
923
1.33630640511877
929
1.33634571158508
915
1.33638501805139
873
1.33642432451771
913
1.33646363098402
931
1.33650293745034
940
1.33654224391665
934
1.33658155038296
981
1.33662085684928
944
1.33666016331559
957
1.3366994697819
998
1.33673877624822
990
1.33677808271453
1049
1.33681738918085
1034
1.33685669564716
1068
1.33689600211347
1073
1.33693530857979
1098
1.3369746150461
1079
1.33701392151241
1109
1.33705322797873
1131
1.33709253444504
1169
1.33713184091135
1190
1.33717114737767
1194
1.33721045384398
1178
1.3372497603103
1249
1.33728906677661
1287
1.33732837324292
1276
1.33736767970924
1268
1.33740698617555
1291
1.33744629264186
1264
1.33748559910818
1272
1.33752490557449
1303
1.33756421204081
1298
1.33760351850712
1241
1.33764282497343
1262
1.33768213143975
1237
1.33772143790606
1294
1.33776074437237
1270
1.33780005083869
1223
1.337839357305
1210
1.33787866377132
1272
1.33791797023763
1215
1.33795727670394
1196
1.33799658317026
1207
1.33803588963657
1162
1.33807519610288
1191
1.3381145025692
1195
1.33815380903551
1190
1.33819311550182
1150
1.33823242196814
1184
1.33827172843445
1211
1.33831103490077
1174
1.33835034136708
1193
1.33838964783339
1201
1.33842895429971
1201
1.33846826076602
1241
1.33850756723233
1207
1.33854687369865
1249
1.33858618016496
1259
1.33862548663128
1219
1.33866479309759
1229
1.3387040995639
1252
1.33874340603022
1278
1.33878271249653
1301
1.33882201896284
1292
1.33886132542916
1326
1.33890063189547
1451
1.33893993836179
1439
1.3389792448281
1465
1.33901855129441
1543
1.33905785776073
1554
1.33909716422704
1629
1.33913647069335
1686
1.33917577715967
1793
1.33921508362598
1787
1.3392543900923
1810
1.33929369655861
1868
1.33933300302492
2045
1.33937230949124
2169
1.33941161595755
2214
1.33945092242386
2261
1.33949022889018
2320
1.33952953535649
2517
1.3395688418228
2591
1.33960814828912
2791
1.33964745475543
2903
1.33968676122175
3155
1.33972606768806
3444
1.33976537415437
3838
1.33980468062069
4391
1.339843987087
5409
1.33988329355331
6891
1.33992260001963
9289
1.33996190648594
12296
1.34000121295226
16014
1.34004051941857
19520
1.34007982588488
20348
1.3401191323512
17837
1.34015843881751
12697
1.34019774528382
8139
1.34023705175014
4609
1.34027635821645
2825
1.34031566468277
1966
1.34035497114908
1443
1.34039427761539
1067
1.34043358408171
868
1.34047289054802
740
1.34051219701433
639
1.34055150348065
531
1.34059080994696
493
1.34063011641328
466
1.34066942287959
418
1.3407087293459
423
1.34074803581222
420
1.34078734227853
433
1.34082664874484
452
1.34086595521116
553
1.34090526167747
660
1.34094456814378
814
1.3409838746101
994
1.34102318107641
1158
1.34106248754273
1169
1.34110179400904
1026
1.34114110047535
835
1.34118040694167
552
1.34121971340798
414
1.34125901987429
299
1.34129832634061
247
1.34133763280692
186
1.34137693927324
186
1.34141624573955
183
1.34145555220586
171
1.34149485867218
176
1.34153416513849
175
1.3415734716048
168
1.34161277807112
180
1.34165208453743
188
1.34169139100375
159
1.34173069747006
153
1.34177000393637
155
1.34180931040269
172
1.341848616869
152
1.34188792333531
146
1.34192722980163
149
1.34196653626794
170
1.34200584273426
167
1.34204514920057
147
1.34208445566688
139
1.3421237621332
139
1.34216306859951
162
1.34220237506582
168
1.34224168153214
159
1.34228098799845
148
1.34232029446476
148
1.34235960093108
151
1.34239890739739
163
1.34243821386371
158
1.34247752033002
139
1.34251682679633
138
1.34255613326265
145
1.34259543972896
157
1.34263474619527
162
1.34267405266159
163
1.3427133591279
141
1.34275266559422
147
1.34279197206053
Cl2s
MX-HT 0p1 20Ap
2023
5
9
20
58
22
2
41
Creation
Created by : XPSUser
Date created : 09/05/2023 20:58
Computer : DESKTOP-U3MGE2F
Location
Location ID : X1
Sample : MX-HT 0p1 20Ap
Description : (55.384,14.627,-0.798)mm
Tilt : 0.00
Charge Neutraliser : On
Filament Current : 0.53A
Filament Bias : 2.02V
Charge Balance : 5.02V
Settings
Excitation
Mode : XPS - monochromatic
Tuning : Spectroscopy
Emission current : 15.00mA
Anode library : Al
ESCA modes
Collimation : Slot
Lens : Hybrid
Resolution : 20.00
Scan
Deflection : (0.000, 0.000)mm
Cl2s : 1201.690-1231.690eV, Sweeps 1
Start : 1201.690eV
End : 1231.690eV
Centre : 1216.690eV
Width : 30.000eV
Step size : 0.100eV
Number Steps : 300
Dwell time : 199ms
Sweep time : 60s
Sweeps : 1
Target quality : 200
Instrument Conditions
Work function : -4.50
Acquisition Conditions
X-ray Power : 225.00W
Quality : 480.29
XPS
3
55.38425
14.626890625
-0.7984765625
Al (mono)
1486.69
225
1E+37
1E+37
1E+37
1E+37
FAT
20
1E+37
-4.5
1E+37
1E+37
1E+37
1E+37
1E+37
Cl2s

-1
Kinetic energy
eV
1201.69
0.1
2
Intensity
d
Transmission
d
pulse counting
0.199335548172757
1
0
1E+37
1E+37
1E+37
0
602
68
12615
1.33964745475543
1.35143939464955
1754
1.33964745475543
1933
1.33968676122175
2076
1.33972606768806
2295
1.33976537415437
2762
1.33980468062069
3311
1.339843987087
4161
1.33988329355331
5689
1.33992260001963
7707
1.33996190648594
10255
1.34000121295226
12183
1.34004051941857
12615
1.34007982588488
10728
1.3401191323512
7543
1.34015843881751
4757
1.34019774528382
2657
1.34023705175014
1629
1.34027635821645
1163
1.34031566468277
870
1.34035497114908
663
1.34039427761539
544
1.34043358408171
460
1.34047289054802
374
1.34051219701433
349
1.34055150348065
300
1.34059080994696
286
1.34063011641328
275
1.34066942287959
257
1.3407087293459
256
1.34074803581222
258
1.34078734227853
258
1.34082664874484
312
1.34086595521116
339
1.34090526167747
419
1.34094456814378
497
1.3409838746101
620
1.34102318107641
713
1.34106248754273
708
1.34110179400904
579
1.34114110047535
384
1.34118040694167
247
1.34121971340798
225
1.34125901987429
152
1.34129832634061
118
1.34133763280692
119
1.34137693927324
102
1.34141624573955
104
1.34145555220586
103
1.34149485867218
94
1.34153416513849
109
1.3415734716048
95
1.34161277807112
97
1.34165208453743
92
1.34169139100375
107
1.34173069747006
100
1.34177000393637
105
1.34180931040269
111
1.341848616869
97
1.34188792333531
95
1.34192722980163
106
1.34196653626794
90
1.34200584273426
88
1.34204514920057
93
1.34208445566688
90
1.3421237621332
105
1.34216306859951
89
1.34220237506582
102
1.34224168153214
93
1.34228098799845
96
1.34232029446476
98
1.34235960093108
96
1.34239890739739
96
1.34243821386371
91
1.34247752033002
81
1.34251682679633
76
1.34255613326265
79
1.34259543972896
78
1.34263474619527
92
1.34267405266159
83
1.3427133591279
83
1.34275266559422
102
1.34279197206053
94
1.34283127852684
89
1.34287058499316
94
1.34290989145947
89
1.34294919792578
98
1.3429885043921
97
1.34302781085841
94
1.34306711732473
92
1.34310642379104
77
1.34314573025735
85
1.34318503672367
81
1.34322434318998
76
1.34326364965629
83
1.34330295612261
102
1.34334226258892
90
1.34338156905524
93
1.34342087552155
77
1.34346018198786
81
1.34349948845418
80
1.34353879492049
83
1.3435781013868
90
1.34361740785312
108
1.34365671431943
99
1.34369602078574
90
1.34373532725206
104
1.34377463371837
82
1.34381394018469
84
1.343853246651
85
1.34389255311731
80
1.34393185958363
79
1.34397116604994
69
1.34401047251625
74
1.34404977898257
91
1.34408908544888
94
1.3441283919152
88
1.34416769838151
77
1.34420700484782
90
1.34424631131414
88
1.34428561778045
88
1.34432492424676
101
1.34436423071308
87
1.34440353717939
94
1.34444284364571
98
1.34448215011202
93
1.34452145657833
94
1.34456076304465
77
1.34460006951096
82
1.34463937597727
83
1.34467868244359
95
1.3447179889099
90
1.34475729537622
84
1.34479660184253
99
1.34483590830884
110
1.34487521477516
109
1.34491452124147
91
1.34495382770778
88
1.3449931341741
109
1.34503244064041
91
1.34507174710672
99
1.34511105357304
110
1.34515036003935
100
1.34518966650567
123
1.34522897297198
102
1.34526827943829
109
1.34530758590461
116
1.34534689237092
102
1.34538619883723
98
1.34542550530355
102
1.34546481176986
91
1.34550411823618
114
1.34554342470249
122
1.3455827311688
94
1.34562203763512
109
1.34566134410143
121
1.34570065056774
111
1.34573995703406
119
1.34577926350037
102
1.34581856996669
107
1.345857876433
113
1.34589718289931
100
1.34593648936563
95
1.34597579583194
104
1.34601510229825
99
1.34605440876457
104
1.34609371523088
99
1.34613302169719
99
1.34617232816351
100
1.34621163462982
86
1.34625094109614
105
1.34629024756245
91
1.34632955402876
81
1.34636886049508
90
1.34640816696139
98
1.3464474734277
76
1.34648677989402
80
1.34652608636033
91
1.34656539282665
82
1.34660469929296
95
1.34664400575927
77
1.34668331222559
75
1.3467226186919
84
1.34676192515821
84
1.34680123162453
89
1.34684053809084
93
1.34687984455716
83
1.34691915102347
85
1.34695845748978
88
1.3469977639561
85
1.34703707042241
73
1.34707637688872
70
1.34711568335504
82
1.34715498982135
96
1.34719429628767
81
1.34723360275398
75
1.34727290922029
84
1.34731221568661
85
1.34735152215292
83
1.34739082861923
70
1.34743013508555
82
1.34746944155186
91
1.34750874801817
81
1.34754805448449
88
1.3475873609508
88
1.34762666741712
79
1.34766597388343
101
1.34770528034974
87
1.34774458681606
71
1.34778389328237
85
1.34782319974868
93
1.347862506215
85
1.34790181268131
77
1.34794111914763
84
1.34798042561394
79
1.34801973208025
88
1.34805903854657
88
1.34809834501288
80
1.34813765147919
99
1.34817695794551
81
1.34821626441182
76
1.34825557087814
85
1.34829487734445
89
1.34833418381076
94
1.34837349027708
92
1.34841279674339
78
1.3484521032097
76
1.34849140967602
96
1.34853071614233
89
1.34857002260865
83
1.34860932907496
99
1.34864863554127
92
1.34868794200759
80
1.3487272484739
84
1.34876655494021
82
1.34880586140653
75
1.34884516787284
69
1.34888447433916
84
1.34892378080547
82
1.34896308727178
92
1.3490023937381
89
1.34904170020441
76
1.34908100667072
83
1.34912031313704
94
1.34915961960335
93
1.34919892606966
87
1.34923823253598
90
1.34927753900229
90
1.34931684546861
85
1.34935615193492
85
1.34939545840123
98
1.34943476486755
85
1.34947407133386
70
1.34951337780017
77
1.34955268426649
75
1.3495919907328
89
1.34963129719912
87
1.34967060366543
83
1.34970991013174
97
1.34974921659806
75
1.34978852306437
85
1.34982782953068
86
1.349867135997
68
1.34990644246331
85
1.34994574892963
86
1.34998505539594
86
1.35002436186225
90
1.35006366832857
82
1.35010297479488
90
1.35014228126119
86
1.35018158772751
81
1.35022089419382
79
1.35026020066013
83
1.35029950712645
84
1.35033881359276
82
1.35037812005908
91
1.35041742652539
103
1.3504567329917
93
1.35049603945802
95
1.35053534592433
95
1.35057465239064
89
1.35061395885696
74
1.35065326532327
83
1.35069257178959
90
1.3507318782559
80
1.35077118472221
84
1.35081049118853
86
1.35084979765484
78
1.35088910412115
83
1.35092841058747
87
1.35096771705378
88
1.3510070235201
89
1.35104632998641
92
1.35108563645272
90
1.35112494291904
93
1.35116424938535
88
1.35120355585166
79
1.35124286231798
85
1.35128216878429
88
1.35132147525061
80
1.35136078171692
82
1.35140008818323
81
1.35143939464955
F1s
MX-HT 0p1 20Ap
2023
5
9
20
58
22
2
41
Creation
Created by : XPSUser
Date created : 09/05/2023 20:58
Computer : DESKTOP-U3MGE2F
Location
Location ID : X1
Sample : MX-HT 0p1 20Ap
Description : (55.384,14.627,-0.798)mm
Tilt : 0.00
Charge Neutraliser : On
Filament Current : 0.53A
Filament Bias : 2.02V
Charge Balance : 5.02V
Settings
Excitation
Mode : XPS - monochromatic
Tuning : Spectroscopy
Emission current : 15.00mA
Anode library : Al
ESCA modes
Collimation : Slot
Lens : Hybrid
Resolution : 20.00
Scan
Deflection : (0.000, 0.000)mm
F1s : 791.690-811.690eV, Sweeps 5
Start : 791.690eV
End : 811.690eV
Centre : 801.690eV
Width : 20.000eV
Step size : 0.100eV
Number Steps : 200
Dwell time : 299ms
Sweep time : 60s
Sweeps : 5
Target quality : 200
Instrument Conditions
Work function : -4.50
Acquisition Conditions
X-ray Power : 225.00W
Quality : 101.70
XPS
4
55.38425
14.626890625
-0.7984765625
Al (mono)
1486.69
225
1E+37
1E+37
1E+37
1E+37
FAT
20
1E+37
-4.5
1E+37
1E+37
1E+37
1E+37
1E+37
F1s

-1
Kinetic energy
eV
791.69
0.1
2
Intensity
d
Transmission
d
pulse counting
0.298507462686567
5
0
1E+37
1E+37
1E+37
0
402
9388
16364
1.45714403256293
1.46809980524165
9624
1.46809980524165
9714
1.46804594968559
9744
1.46799209412953
9714
1.46793823857347
9772
1.46788438301742
9824
1.46783052746136
9774
1.4677766719053
9802
1.46772281634924
9814
1.46766896079318
9720
1.46761510523713
9724
1.46756124968107
9859
1.46750739412501
9855
1.46745353856895
9636
1.46739968301289
9860
1.46734582745684
9707
1.46729197190078
9697
1.46723811634472
9738
1.46718426078866
9704
1.4671304052326
9762
1.46707654967654
9771
1.46702269412049
9635
1.46696883856443
9726
1.46691498300837
9885
1.46686112745231
9747
1.46680727189625
9728
1.4667534163402
9700
1.46669956078414
9628
1.46664570522808
9681
1.46659184967202
9950
1.46653799411596
9670
1.46648413855991
9916
1.46643028300385
9822
1.46637642744779
9686
1.46632257189173
9697
1.46626871633567
9811
1.46621486077962
9774
1.46616100522356
9820
1.4661071496675
9870
1.46605329411144
9684
1.46599943855538
9731
1.46594558299933
9800
1.46589172744327
9757
1.46583787188721
9627
1.46578401633115
9810
1.46573016077509
9846
1.46567630521904
9850
1.46562244966298
9783
1.46556859410692
9825
1.46551473855086
9799
1.4654608829948
9796
1.46540702743874
9863
1.46535317188269
9844
1.46529931632663
9872
1.46524546077057
9803
1.46519160521451
9785
1.46513774965845
9917
1.4650838941024
9874
1.46503003854634
9896
1.46497618299028
9900
1.46492232743422
9871
1.46486847187816
9889
1.46481461632211
9873
1.46476076076605
9833
1.46470690520999
9660
1.46465304965393
9831
1.46459919409787
9854
1.46454533854182
9767
1.46449148298576
9783
1.4644376274297
9840
1.46438377187364
9955
1.46432991631758
9773
1.46427606076153
9881
1.46422220520547
10022
1.46416834964941
9976
1.46411449409335
9903
1.46406063853729
10007
1.46400678298124
9984
1.46395292742518
9975
1.46389907186912
9923
1.46384521631306
10058
1.463791360757
10183
1.46373750520094
10302
1.46368364964489
10198
1.46362979408883
10136
1.46357593853277
10264
1.46352208297671
10370
1.46346822742065
10506
1.4634143718646
10507
1.46336051630854
10576
1.46330666075248
10741
1.46325280519642
10710
1.46319894964036
10879
1.46314509408431
11059
1.46309123852825
11221
1.46303738297219
11132
1.46298352741613
11453
1.46292967186007
11750
1.46287581630402
11960
1.46282196074796
12449
1.4627681051919
12937
1.46271424963584
13706
1.46266039407978
14641
1.46260653852373
15307
1.46255268296767
15986
1.46249882741161
16127
1.46244497185555
16329
1.46239111629949
16364
1.46233726074344
15961
1.46228340518738
15338
1.46222954963132
14649
1.46217569407526
13816
1.4621218385192
12825
1.46206798296314
12179
1.46201412740709
11696
1.46196027185103
11114
1.46190641629497
10713
1.46185256073891
10507
1.46179870518285
10506
1.4617448496268
10291
1.46169099407074
10105
1.46163713851468
9945
1.46158328295862
9826
1.46152942740256
9897
1.46147557184651
9795
1.46142171629045
9725
1.46136786073439
9728
1.46131400517833
9701
1.46126014962227
9706
1.46120629406622
9607
1.46115243851016
9623
1.4610985829541
9474
1.46104472739804
9570
1.46099087184198
9728
1.46093701628593
9612
1.46088316072987
9615
1.46082930517381
9649
1.46077544961775
9800
1.46072159406169
9806
1.46066773850564
9760
1.46061388294958
9751
1.46056002739352
9645
1.46050617183746
9677
1.4604523162814
9735
1.46039846072534
9665
1.46034460516929
9723
1.46029074961323
9698
1.46023689405717
9814
1.46018303850111
9761
1.46012918294505
9643
1.460075327389
9675
1.46002147183294
9388
1.45996761627688
9590
1.45991376072082
9648
1.45985990516476
9726
1.45980604960871
9553
1.45975219405265
9540
1.45969833849659
9686
1.45964448294053
9564
1.45959062738447
9735
1.45953677182842
9696
1.45948291627236
9647
1.4594290607163
9597
1.45937520516024
9649
1.45932134960418
9790
1.45926749404813
9644
1.45921363849207
9685
1.45915978293601
9680
1.45910592737995
9622
1.45905207182389
9647
1.45899821626783
9735
1.45894436071178
9611
1.45889050515572
9625
1.45883664959966
9721
1.4587827940436
9632
1.45872893848754
9636
1.45867508293149
9678
1.45862122737543
9631
1.45856737181937
9534
1.45851351626331
9690
1.45845966070725
9597
1.4584058051512
9660
1.45835194959514
9857
1.45829809403908
9702
1.45824423848302
9696
1.45818054888434
9715
1.45811576661425
9727
1.45805098434416
9486
1.45798620207407
9576
1.45792141980398
9627
1.4578566375339
9468
1.45779185526381
9543
1.45772707299372
9615
1.45766229072363
9771
1.45759750845354
9649
1.45753272618346
9742
1.45746794391337
9614
1.45740316164328
9652
1.45733837937319
9659
1.4572735971031
9739
1.45720881483302
9735
1.45714403256293
O1s
MX-HT 0p1 20Ap
2023
5
9
20
58
22
2
41
Creation
Created by : XPSUser
Date created : 09/05/2023 20:58
Computer : DESKTOP-U3MGE2F
Location
Location ID : X1
Sample : MX-HT 0p1 20Ap
Description : (55.384,14.627,-0.798)mm
Tilt : 0.00
Charge Neutraliser : On
Filament Current : 0.53A
Filament Bias : 2.02V
Charge Balance : 5.02V
Settings
Excitation
Mode : XPS - monochromatic
Tuning : Spectroscopy
Emission current : 15.00mA
Anode library : Al
ESCA modes
Collimation : Slot
Lens : Hybrid
Resolution : 20.00
Scan
Deflection : (0.000, 0.000)mm
O1s : 946.690-961.690eV, Sweeps 5
Start : 946.690eV
End : 961.690eV
Centre : 954.190eV
Width : 15.000eV
Step size : 0.100eV
Number Steps : 150
Dwell time : 397ms
Sweep time : 60s
Sweeps : 5
Target quality : 200
Instrument Conditions
Work function : -4.50
Acquisition Conditions
X-ray Power : 225.00W
Quality : 114.84
XPS
5
55.38425
14.626890625
-0.7984765625
Al (mono)
1486.69
225
1E+37
1E+37
1E+37
1E+37
FAT
20
1E+37
-4.5
1E+37
1E+37
1E+37
1E+37
1E+37
O1s

-1
Kinetic energy
eV
946.69
0.1
2
Intensity
d
Transmission
d
pulse counting
0.397351
5
0
1E+37
1E+37
1E+37
0
302
11804
20866
1.39073012089434
1.39549665066723
12775
1.39549665066723
12864
1.39546487380208
12678
1.39543309693692
12686
1.39540132007177
12719
1.39536954320662
12555
1.39533776634147
12461
1.39530598947631
12686
1.39527421261116
12554
1.39524243574601
12584
1.39521065888085
12757
1.3951788820157
12770
1.39514710515055
12737
1.3951153282854
12651
1.39508355142024
12741
1.39505177455509
12697
1.39501999768994
12615
1.39498822082479
12540
1.39495644395963
12659
1.39492466709448
12653
1.39489289022933
12656
1.39486111336418
12506
1.39482933649902
12543
1.39479755963387
12768
1.39476578276872
12517
1.39473400590357
12626
1.39470222903841
12626
1.39467045217326
12589
1.39463867530811
12709
1.39460689844296
12813
1.3945751215778
12799
1.39454334471265
12686
1.3945115678475
12669
1.39447979098235
12732
1.39444801411719
12781
1.39441623725204
12581
1.39438446038689
12560
1.39435268352174
12648
1.39432090665658
12746
1.39428912979143
12694
1.39425735292628
12698
1.39422557606112
12669
1.39419379919597
12850
1.39416202233082
12852
1.39413024546567
12761
1.39409846860051
12818
1.39406669173536
12913
1.39403491487021
12745
1.39400313800506
12772
1.3939713611399
13004
1.39393958427475
12978
1.3939078074096
12798
1.39387603054445
12919
1.39384425367929
12812
1.39381247681414
12989
1.39378069994899
13044
1.39374892308384
13021
1.39371714621868
12998
1.39368536935353
12980
1.39365359248838
13163
1.39362181562323
13414
1.39359003875807
13467
1.39355826189292
13520
1.39352648502777
13823
1.39349470816262
13790
1.39346293129746
13990
1.39343115443231
14225
1.39339937756716
14315
1.393367600702
14724
1.39333582383685
14930
1.3933040469717
15124
1.39327227010655
15254
1.39324049324139
15832
1.39320871637624
16146
1.39317693951109
16083
1.39314516264594
16305
1.39311338578078
16639
1.39308160891563
17003
1.39304983205048
17061
1.39301805518533
17293
1.39298627832017
17399
1.39295450145502
17609
1.39292272458987
17803
1.39289094772472
17880
1.39285917085956
18068
1.39282739399441
17932
1.39279561712926
18114
1.39276384026411
18258
1.39273206339895
18521
1.3927002865338
18347
1.39266850966865
18475
1.3926367328035
18787
1.39260495593834
19127
1.39257317907319
19346
1.39254140220804
19626
1.39250962534289
19928
1.39247784847773
20347
1.39244607161258
20587
1.39241429474743
20732
1.39238251788227
20866
1.39235074101712
20488
1.39231896415197
20335
1.39228718728682
20052
1.39225541042166
19570
1.39222363355651
19368
1.39219185669136
19031
1.39216007982621
18968
1.39212830296105
19069
1.3920965260959
18941
1.39206474923075
18970
1.3920329723656
18596
1.39200119550044
17709
1.39196941863529
16762
1.39193764177014
15457
1.39190586490499
14533
1.39187408803983
13792
1.39184231117468
13236
1.39181053430953
12888
1.39177875744438
12514
1.39174698057922
12359
1.39171520371407
12191
1.39168342684892
12112
1.39165164998377
12205
1.39161987311861
12168
1.39158809625346
12306
1.39155631938831
12253
1.39152454252316
12031
1.391492765658
12021
1.39146098879285
11985
1.3914292119277
12026
1.39139743506254
12001
1.39136565819739
11985
1.39133388133224
11804
1.39130210446709
12055
1.39127032760193
11993
1.39123855073678
12010
1.39120677387163
11917
1.39117499700648
11903
1.39114322014132
11855
1.39111144327617
11961
1.39107966641102
11849
1.39104788954587
11837
1.39101611268071
11852
1.39098433581556
11815
1.39095255895041
11838
1.39092078208526
11852
1.3908890052201
11909
1.39085722835495
11908
1.3908254514898
11909
1.39079367462465
11841
1.39076189775949
11903
1.39073012089434
Cl2p
MX-HT 0p1 20Ap
2023
5
9
20
58
22
2
41
Creation
Created by : XPSUser
Date created : 09/05/2023 20:58
Computer : DESKTOP-U3MGE2F
Location
Location ID : X1
Sample : MX-HT 0p1 20Ap
Description : (55.384,14.627,-0.798)mm
Tilt : 0.00
Charge Neutraliser : On
Filament Current : 0.53A
Filament Bias : 2.02V
Charge Balance : 5.02V
Settings
Excitation
Mode : XPS - monochromatic
Tuning : Spectroscopy
Emission current : 15.00mA
Anode library : Al
ESCA modes
Collimation : Slot
Lens : Hybrid
Resolution : 20.00
Scan
Deflection : (0.000, 0.000)mm
Cl2p : 1278.690-1291.690eV, Sweeps 5
Start : 1278.690eV
End : 1291.690eV
Centre : 1285.190eV
Width : 13.000eV
Step size : 0.100eV
Number Steps : 130
Dwell time : 458ms
Sweep time : 60s
Sweeps : 5
Target quality : 200
Instrument Conditions
Work function : -4.50
Acquisition Conditions
X-ray Power : 225.00W
Quality : 45.89
XPS
6
55.38425
14.626890625
-0.7984765625
Al (mono)
1486.69
225
1E+37
1E+37
1E+37
1E+37
FAT
20
1E+37
-4.5
1E+37
1E+37
1E+37
1E+37
1E+37
Cl2p

-1
Kinetic energy
eV
1278.69
0.1
2
Intensity
d
Transmission
d
pulse counting
0.458015267175573
5
0
1E+37
1E+37
1E+37
0
262
947
2031
1.34975176565477
1.35099769238123
952
1.35099769238123
1005
1.35098810832949
1037
1.35097852427775
1020
1.35096894022601
1051
1.35095935617426
1028
1.35094977212252
962
1.35094018807078
1000
1.35093060401904
1038
1.3509210199673
1026
1.35091143591555
1054
1.35090185186381
1036
1.35089226781207
1047
1.35088268376033
1027
1.35087309970859
1035
1.35086351565684
991
1.3508539316051
1040
1.35084434755336
974
1.35083476350162
1018
1.35082517944988
1033
1.35081559539813
1049
1.35080601134639
1035
1.35079642729465
1036
1.35078684324291
1036
1.35077725919117
1019
1.35076767513942
1041
1.35075809108768
1051
1.35074850703594
1000
1.3507389229842
1065
1.35072933893246
1075
1.35071975488071
1051
1.35071017082897
1054
1.35070058677723
1019
1.35069100272549
980
1.35068141867375
965
1.350671834622
1000
1.35066225057026
1005
1.35065266651852
1039
1.35064308246678
1048
1.35063349841504
1042
1.35062391436329
997
1.35061433031155
1029
1.35060474625981
1045
1.35059516220807
992
1.35058557815633
988
1.35057599410458
1026
1.35056641005284
1029
1.3505568260011
1042
1.35054724194936
1086
1.35053765789762
1049
1.35052807384587
1019
1.35051848979413
1051
1.35050890574239
1066
1.35049932169065
1077
1.35048973763891
1075
1.35048015358716
1017
1.35047056953542
1017
1.35046098548368
1020
1.35045140143194
1085
1.3504418173802
1052
1.35043223332845
1016
1.35042264927671
1080
1.35041306522497
1054
1.35040348117323
1057
1.35039389712149
1052
1.35038431306974
1100
1.350374729018
1117
1.35036514496626
1118
1.35035556091452
1165
1.35034597686278
1151
1.35033639281103
1239
1.35032680875929
1185
1.35031722470755
1213
1.35030764065581
1274
1.35029805660407
1320
1.35028847255232
1389
1.35027888850058
1473
1.35026930444884
1544
1.3502597203971
1500
1.35025013634536
1520
1.35024055229361
1502
1.35023096824187
1492
1.35022138419013
1385
1.35021180013839
1356
1.35020221608665
1326
1.3501926320349
1243
1.35018304798316
1211
1.35017346393142
1257
1.35016387987968
1363
1.35015429582794
1466
1.35014471177619
1522
1.35013512772445
1683
1.35012554367271
1766
1.35011595962097
1867
1.35010637556923
2031
1.35009679151748
1911
1.35008720746574
1872
1.350077623414
1726
1.35006803936226
1534
1.35005845531052
1409
1.35004887125877
1235
1.35003928720703
1177
1.35002970315529
1125
1.35002011910355
1027
1.35001053505181
1017
1.35000095100006
1005
1.34999136694832
1068
1.34998178289658
1019
1.34997219884484
1013
1.3499626147931
996
1.34995303074135
1038
1.34994344668961
1001
1.34993386263787
1006
1.34992427858613
1001
1.34991469453439
986
1.34990511048264
981
1.3498955264309
1010
1.34988594237916
1022
1.34987635832742
1022
1.34986677427568
994
1.34985719022393
1026
1.34984760617219
1027
1.34983802212045
1032
1.34982843806871
996
1.34981885401697
989
1.34980926996522
961
1.34979968591348
1006
1.34979010186174
1040
1.34978051781
975
1.34977093375826
947
1.34976134970651
960
1.34975176565477
Ti3s
MX-HT 0p1 20Ap
2023
5
9
20
58
22
2
41
Creation
Created by : XPSUser
Date created : 09/05/2023 20:58
Computer : DESKTOP-U3MGE2F
Location
Location ID : X1
Sample : MX-HT 0p1 20Ap
Description : (55.384,14.627,-0.798)mm
Tilt : 0.00
Charge Neutraliser : On
Filament Current : 0.53A
Filament Bias : 2.02V
Charge Balance : 5.02V
Settings
Excitation
Mode : XPS - monochromatic
Tuning : Spectroscopy
Emission current : 15.00mA
Anode library : Al
ESCA modes
Collimation : Slot
Lens : Hybrid
Resolution : 20.00
Scan
Deflection : (0.000, 0.000)mm
Ti3s : 1412.690-1442.690eV, Sweeps 5
Start : 1412.690eV
End : 1442.690eV
Centre : 1427.690eV
Width : 30.000eV
Step size : 0.100eV
Number Steps : 300
Dwell time : 199ms
Sweep time : 60s
Sweeps : 5
Target quality : 200
Instrument Conditions
Work function : -4.50
Acquisition Conditions
X-ray Power : 225.00W
Quality : 31.29
XPS
7
55.38425
14.626890625
-0.7984765625
Al (mono)
1486.69
225
1E+37
1E+37
1E+37
1E+37
FAT
20
1E+37
-4.5
1E+37
1E+37
1E+37
1E+37
1E+37
Ti3s

-1
Kinetic energy
eV
1412.69
0.1
2
Intensity
d
Transmission
d
pulse counting
0.199335548172757
5
0
1E+37
1E+37
1E+37
0
602
432
924
1.29494863949153
1.2965505499007
569
1.2965505499007
558
1.29654521019933
594
1.29653987049797
567
1.2965345307966
574
1.29652919109524
568
1.29652385139388
535
1.29651851169251
584
1.29651317199115
558
1.29650783228978
538
1.29650249258842
544
1.29649715288706
561
1.29649181318569
570
1.29648647348433
526
1.29648113378297
545
1.2964757940816
552
1.29647045438024
576
1.29646511467887
571
1.29645977497751
556
1.29645443527615
544
1.29644909557478
548
1.29644375587342
534
1.29643841617205
519
1.29643307647069
546
1.29642773676933
542
1.29642239706796
512
1.2964170573666
546
1.29641171766523
520
1.29640637796387
555
1.29640103826251
528
1.29639569856114
537
1.29639035885978
547
1.29638501915842
533
1.29637967945705
545
1.29637433975569
545
1.29636900005432
535
1.29636366035296
561
1.2963583206516
540
1.29635298095023
580
1.29634764124887
548
1.2963423015475
530
1.29633696184614
519
1.29633162214478
529
1.29632628244341
529
1.29632094274205
578
1.29631560304068
555
1.29631026333932
516
1.29630492363796
515
1.29629958393659
525
1.29629424423523
502
1.29628890453386
514
1.2962835648325
503
1.29627822513114
500
1.29627288542977
509
1.29626754572841
475
1.29626220602705
514
1.29625686632568
507
1.29625152662432
519
1.29624618692295
531
1.29624084722159
531
1.29623550752023
522
1.29623016781886
521
1.2962248281175
529
1.29621948841613
527
1.29621414871477
504
1.29620880901341
508
1.29620346931204
499
1.29619812961068
521
1.29619278990931
515
1.29618745020795
485
1.29618211050659
513
1.29617677080522
530
1.29617143110386
547
1.2961660914025
523
1.29616075170113
494
1.29615541199977
533
1.2961500722984
537
1.29614473259704
527
1.29613939289568
525
1.29613405319431
544
1.29612871349295
554
1.29612337379158
520
1.29611803409022
537
1.29611269438886
532
1.29610735468749
542
1.29610201498613
555
1.29609667528476
529
1.2960913355834
544
1.29608599588204
537
1.29608065618067
539
1.29607531647931
542
1.29606997677794
534
1.29606463707658
569
1.29605929737522
567
1.29605395767385
561
1.29604861797249
577
1.29604327827113
569
1.29603793856976
565
1.2960325988684
579
1.29602725916703
587
1.29602191946567
598
1.29601657976431
597
1.29601124006294
622
1.29600590036158
615
1.29600056066021
590
1.29599522095885
582
1.29598988125749
613
1.29598454155612
606
1.29597920185476
651
1.29597386215339
672
1.29596852245203
670
1.29596318275067
634
1.2959578430493
646
1.29595250334794
694
1.29594716364658
696
1.29594182394521
701
1.29593648424385
723
1.29593114454248
706
1.29592580484112
747
1.29592046513976
732
1.29591512543839
770
1.29590978573703
769
1.29590444603566
736
1.2958991063343
768
1.29589376663294
788
1.29588842693157
774
1.29588308723021
801
1.29587774752884
751
1.29587240782748
749
1.29586706812612
793
1.29586172842475
793
1.29585638872339
744
1.29585104902202
790
1.29584570932066
794
1.2958403696193
793
1.29583502991793
823
1.29582969021657
835
1.29582435051521
838
1.29581901081384
833
1.29581367111248
837
1.29580833141111
858
1.29580299170975
854
1.29579765200839
924
1.29579231230702
905
1.29578697260566
851
1.29578163290429
862
1.29577629320293
865
1.29577095350157
879
1.2957656138002
897
1.29576027409884
857
1.29575493439747
914
1.29574959469611
884
1.29574425499475
858
1.29573891529338
869
1.29573357559202
869
1.29572823589066
838
1.29572289618929
823
1.29571755648793
832
1.29571221678656
796
1.2957068770852
788
1.29570153738384
720
1.29569619768247
685
1.29569085798111
700
1.29568551827974
681
1.29568017857838
649
1.29567483887702
684
1.29566949917565
648
1.29566415947429
654
1.29565881977292
629
1.29565348007156
624
1.2956481403702
612
1.29564280066883
582
1.29563746096747
572
1.2956321212661
556
1.29562678156474
535
1.29562144186338
547
1.29561610216201
545
1.29561076246065
554
1.29560542275929
576
1.29560008305792
553
1.29559474335656
533
1.29558940365519
543
1.29558406395383
541
1.29557872425247
506
1.2955733845511
543
1.29556804484974
547
1.29556270514837
535
1.29555736544701
498
1.29555202574565
528
1.29554668604428
515
1.29554134634292
496
1.29553600664155
515
1.29553066694019
516
1.29552532723883
523
1.29551998753746
524
1.2955146478361
514
1.29550930813473
512
1.29550396843337
510
1.29549862873201
542
1.29549328903064
501
1.29548794932928
496
1.29548260962792
514
1.29547726992655
497
1.29547193022519
514
1.29546659052382
531
1.29546125082246
501
1.2954559111211
515
1.29545057141973
516
1.29544523171837
489
1.295439892017
530
1.29543455231564
480
1.29542921261428
486
1.29542387291291
516
1.29541853321155
487
1.29541319351018
496
1.29540785380882
496
1.29540251410746
527
1.29539717440609
477
1.29539183470473
485
1.29538649500337
515
1.295381155302
531
1.29537581560064
532
1.29537047589927
492
1.29536513619791
497
1.29535979649655
515
1.29535445679518
480
1.29534911709382
526
1.29534377739245
514
1.29533843769109
526
1.29533309798973
524
1.29532775828836
525
1.295322418587
534
1.29531707888563
529
1.29531173918427
485
1.29530639948291
452
1.29530105978154
501
1.29529572008018
499
1.29529038037881
555
1.29528504067745
514
1.29527970097609
516
1.29527436127472
487
1.29526902157336
522
1.295263681872
537
1.29525834217063
524
1.29525300246927
514
1.2952476627679
486
1.29524232306654
515
1.29523698336518
525
1.29523164366381
505
1.29522630396245
521
1.29522096426108
511
1.29521562455972
500
1.29521028485836
475
1.29520494515699
522
1.29519960545563
525
1.29519426575426
514
1.2951889260529
500
1.29518358635154
515
1.29517824665017
518
1.29517290694881
555
1.29516756724745
518
1.29516222754608
519
1.29515688784472
509
1.29515154814335
513
1.29514620844199
498
1.29514086874063
541
1.29513552903926
482
1.2951301893379
494
1.29512484963653
522
1.29511950993517
497
1.29511417023381
497
1.29510883053244
512
1.29510349083108
526
1.29509815112971
495
1.29509281142835
512
1.29508747172699
473
1.29508213202562
493
1.29507679232426
500
1.29507145262289
480
1.29506611292153
480
1.29506077322017
502
1.2950554335188
516
1.29505009381744
508
1.29504475411608
507
1.29503941441471
492
1.29503407471335
507
1.29502873501198
478
1.29502339531062
468
1.29501805560926
465
1.29501271590789
475
1.29500737620653
463
1.29500203650516
462
1.2949966968038
453
1.29499135710244
479
1.29498601740107
462
1.29498067769971
480
1.29497533799834
432
1.29496999829698
442
1.29496465859562
488
1.29495931889425
485
1.29495397919289
472
1.29494863949153
Ti3p
MX-HT 0p1 20Ap
2023
5
9
20
58
22
2
41
Creation
Created by : XPSUser
Date created : 09/05/2023 20:58
Computer : DESKTOP-U3MGE2F
Location
Location ID : X1
Sample : MX-HT 0p1 20Ap
Description : (55.384,14.627,-0.798)mm
Tilt : 0.00
Charge Neutraliser : On
Filament Current : 0.53A
Filament Bias : 2.02V
Charge Balance : 5.02V
Settings
Excitation
Mode : XPS - monochromatic
Tuning : Spectroscopy
Emission current : 15.00mA
Anode library : Al
ESCA modes
Collimation : Slot
Lens : Hybrid
Resolution : 20.00
Scan
Deflection : (0.000, 0.000)mm
Ti3p : 1437.690-1467.690eV, Sweeps 5
Start : 1437.690eV
End : 1467.690eV
Centre : 1452.690eV
Width : 30.000eV
Step size : 0.100eV
Number Steps : 300
Dwell time : 199ms
Sweep time : 60s
Sweeps : 5
Target quality : 200
Instrument Conditions
Work function : -4.50
Acquisition Conditions
X-ray Power : 225.00W
Quality : 71.84
XPS
8
55.38425
14.626890625
-0.7984765625
Al (mono)
1486.69
225
1E+37
1E+37
1E+37
1E+37
FAT
20
1E+37
-4.5
1E+37
1E+37
1E+37
1E+37
1E+37
Ti3p

-1
Kinetic energy
eV
1437.69
0.1
2
Intensity
d
Transmission
d
pulse counting
0.199335548172757
5
0
1E+37
1E+37
1E+37
0
602
199
1191
1.29361371415055
1.29521562455972
506
1.29521562455972
525
1.29521028485836
517
1.29520494515699
503
1.29519960545563
507
1.29519426575426
486
1.2951889260529
493
1.29518358635154
496
1.29517824665017
502
1.29517290694881
526
1.29516756724745
522
1.29516222754608
512
1.29515688784472
487
1.29515154814335
494
1.29514620844199
465
1.29514086874063
495
1.29513552903926
497
1.2951301893379
481
1.29512484963653
479
1.29511950993517
498
1.29511417023381
491
1.29510883053244
501
1.29510349083108
520
1.29509815112971
480
1.29509281142835
504
1.29508747172699
499
1.29508213202562
501
1.29507679232426
502
1.29507145262289
499
1.29506611292153
485
1.29506077322017
502
1.2950554335188
495
1.29505009381744
465
1.29504475411608
492
1.29503941441471
484
1.29503407471335
512
1.29502873501198
497
1.29502339531062
507
1.29501805560926
488
1.29501271590789
511
1.29500737620653
496
1.29500203650516
471
1.2949966968038
473
1.29499135710244
489
1.29498601740107
458
1.29498067769971
488
1.29497533799834
465
1.29496999829698
449
1.29496465859562
449
1.29495931889425
444
1.29495397919289
447
1.29494863949153
451
1.29494329979016
459
1.2949379600888
459
1.29493262038743
419
1.29492728068607
445
1.29492194098471
478
1.29491660128334
465
1.29491126158198
470
1.29490592188061
453
1.29490058217925
443
1.29489524247789
455
1.29488990277652
461
1.29488456307516
453
1.29487922337379
464
1.29487388367243
481
1.29486854397107
448
1.2948632042697
434
1.29485786456834
452
1.29485252486697
456
1.29484718516561
476
1.29484184546425
450
1.29483650576288
463
1.29483116606152
489
1.29482582636016
448
1.29482048665879
449
1.29481514695743
477
1.29480980725606
456
1.2948044675547
465
1.29479912785334
481
1.29479378815197
471
1.29478844845061
494
1.29478310874924
501
1.29477776904788
466
1.29477242934652
466
1.29476708964515
488
1.29476174994379
513
1.29475641024242
508
1.29475107054106
529
1.2947457308397
529
1.29474039113833
500
1.29473505143697
504
1.29472971173561
517
1.29472437203424
548
1.29471903233288
520
1.29471369263151
525
1.29470835293015
542
1.29470301322879
522
1.29469767352742
551
1.29469233382606
530
1.29468699412469
567
1.29468165442333
552
1.29467631472197
575
1.2946709750206
581
1.29466563531924
579
1.29466029561787
616
1.29465495591651
662
1.29464961621515
619
1.29464427651378
674
1.29463893681242
712
1.29463359711105
739
1.29462825740969
750
1.29462291770833
737
1.29461757800696
746
1.2946122383056
760
1.29460689860424
781
1.29460155890287
786
1.29459621920151
826
1.29459087950014
863
1.29458553979878
815
1.29458020009742
853
1.29457486039605
880
1.29456952069469
888
1.29456418099332
889
1.29455884129196
903
1.2945535015906
859
1.29454816188923
877
1.29454282218787
892
1.2945374824865
856
1.29453214278514
884
1.29452680308378
886
1.29452146338241
839
1.29451612368105
926
1.29451078397968
949
1.29450544427832
949
1.29450010457696
928
1.29449476487559
978
1.29448942517423
1001
1.29448408547287
963
1.2944787457715
1015
1.29447340607014
1075
1.29446806636877
1096
1.29446272666741
1133
1.29445738696605
1123
1.29445204726468
1173
1.29444670756332
1124
1.29444136786195
1153
1.29443602816059
1172
1.29443068845923
1191
1.29442534875786
1150
1.2944200090565
1170
1.29441466935513
1139
1.29440932965377
1122
1.29440398995241
1070
1.29439865025104
1114
1.29439331054968
1025
1.29438797084832
970
1.29438263114695
950
1.29437729144559
880
1.29437195174422
808
1.29436661204286
767
1.2943612723415
708
1.29435593264013
650
1.29435059293877
527
1.2943452532374
488
1.29433991353604
459
1.29433457383468
417
1.29432923413331
378
1.29432389443195
389
1.29431855473058
320
1.29431321502922
317
1.29430787532786
312
1.29430253562649
297
1.29429719592513
284
1.29429185622377
287
1.2942865165224
293
1.29428117682104
275
1.29427583711967
282
1.29427049741831
273
1.29426515771695
280
1.29425981801558
280
1.29425447831422
262
1.29424913861285
279
1.29424379891149
292
1.29423845921013
273
1.29423311950876
264
1.2942277798074
253
1.29422244010603
295
1.29421710040467
276
1.29421176070331
289
1.29420642100194
294
1.29420108130058
311
1.29419574159921
302
1.29419040189785
277
1.29418506219649
297
1.29417972249512
320
1.29417438279376
323
1.2941690430924
307
1.29416370339103
318
1.29415836368967
292
1.2941530239883
317
1.29414768428694
335
1.29414234458558
322
1.29413700488421
311
1.29413166518285
288
1.29412632548148
274
1.29412098578012
309
1.29411564607876
279
1.29411030637739
275
1.29410496667603
252
1.29409962697466
261
1.2940942872733
270
1.29408894757194
265
1.29408360787057
255
1.29407826816921
245
1.29407292846784
235
1.29406758876648
236
1.29406224906512
233
1.29405690936375
222
1.29405156966239
213
1.29404622996103
223
1.29404089025966
249
1.2940355505583
222
1.29403021085693
222
1.29402487115557
227
1.29401953145421
224
1.29401419175284
213
1.29400885205148
210
1.29400351235011
223
1.29399817264875
217
1.29399283294739
227
1.29398749324602
228
1.29398215354466
223
1.29397681384329
223
1.29397147414193
236
1.29396613444057
241
1.2939607947392
199
1.29395545503784
236
1.29395011533648
250
1.29394477563511
219
1.29393943593375
235
1.29393409623238
241
1.29392875653102
230
1.29392341682966
253
1.29391807712829
235
1.29391273742693
232
1.29390739772556
250
1.2939020580242
234
1.29389671832284
225
1.29389137862147
257
1.29388603892011
259
1.29388069921874
230
1.29387535951738
247
1.29387001981602
254
1.29386468011465
279
1.29385934041329
298
1.29385400071192
267
1.29384866101056
281
1.2938433213092
258
1.29383798160783
282
1.29383264190647
295
1.29382730220511
281
1.29382196250374
270
1.29381662280238
293
1.29381128310101
295
1.29380594339965
301
1.29380060369829
310
1.29379526399692
313
1.29378992429556
300
1.29378458459419
326
1.29377924489283
338
1.29377390519147
330
1.2937685654901
328
1.29376322578874
336
1.29375788608737
345
1.29375254638601
358
1.29374720668465
363
1.29374186698328
355
1.29373652728192
366
1.29373118758056
371
1.29372584787919
355
1.29372050817783
357
1.29371516847646
357
1.2937098287751
368
1.29370448907374
367
1.29369914937237
333
1.29369380967101
353
1.29368846996964
333
1.29368313026828
323
1.29367779056692
307
1.29367245086555
309
1.29366711116419
307
1.29366177146282
311
1.29365643176146
336
1.2936510920601
332
1.29364575235873
373
1.29364041265737
329
1.293635072956
334
1.29362973325464
335
1.29362439355328
301
1.29361905385191
309
1.29361371415055
Ti2s
MX-HT 0p1 20Ap
2023
5
9
20
58
22
2
41
Creation
Created by : XPSUser
Date created : 09/05/2023 20:58
Computer : DESKTOP-U3MGE2F
Location
Location ID : X1
Sample : MX-HT 0p1 20Ap
Description : (55.384,14.627,-0.798)mm
Tilt : 0.00
Charge Neutraliser : On
Filament Current : 0.53A
Filament Bias : 2.02V
Charge Balance : 5.02V
Settings
Excitation
Mode : XPS - monochromatic
Tuning : Spectroscopy
Emission current : 15.00mA
Anode library : Al
ESCA modes
Collimation : Slot
Lens : Hybrid
Resolution : 20.00
Scan
Deflection : (0.000, 0.000)mm
Ti2s : 907.690-937.690eV, Sweeps 10
Start : 907.690eV
End : 937.690eV
Centre : 922.690eV
Width : 30.000eV
Step size : 0.100eV
Number Steps : 300
Dwell time : 199ms
Sweep time : 60s
Sweeps : 10
Target quality : 200
Instrument Conditions
Work function : -4.50
Acquisition Conditions
X-ray Power : 225.00W
Quality : 41.27
XPS
9
55.38425
14.626890625
-0.7984765625
Al (mono)
1486.69
225
1E+37
1E+37
1E+37
1E+37
FAT
20
1E+37
-4.5
1E+37
1E+37
1E+37
1E+37
1E+37
Ti2s

-1
Kinetic energy
eV
907.69
0.1
2
Intensity
d
Transmission
d
pulse counting
0.199335548172757
10
0
1E+37
1E+37
1E+37
0
602
12938
16374
1.39835656853096
1.40786093570082
14740
1.40786093570082
14585
1.40783040092986
14614
1.40779986615891
14724
1.40776933138795
14682
1.40773879661699
14651
1.40770826184604
14654
1.40767772707508
14702
1.40764719230412
14758
1.40761665753316
14933
1.40758612276221
14723
1.40755558799125
14522
1.40752505322029
14660
1.40749451844934
14742
1.40746398367838
14686
1.40743344890742
14650
1.40740291413646
14771
1.40737237936551
14800
1.40734184459455
14625
1.40731130982359
14709
1.40728077505264
14718
1.40725024028168
14686
1.40721970551072
14618
1.40718917073976
14488
1.40715863596881
14417
1.40712698331307
14660
1.40709520644792
14560
1.40706342958277
14763
1.40703165271762
14706
1.40699987585246
14613
1.40696809898731
14598
1.40693632212216
14753
1.40690454525701
14599
1.40687276839185
14674
1.4068409915267
14617
1.40680921466155
14494
1.4067774377964
14451
1.40674566093124
14614
1.40671388406609
14597
1.40668210720094
14471
1.40665033033579
14738
1.40661855347063
14707
1.40658677660548
14571
1.40655499974033
14645
1.40652322287517
14567
1.40649144601002
14391
1.40645966914487
14616
1.40642789227972
14781
1.40639611541456
14669
1.40636433854941
14630
1.40633256168426
14614
1.40630078481911
14546
1.40626900795395
14370
1.4062372310888
14616
1.40620545422365
14501
1.4061736773585
14732
1.40614190049334
14635
1.40611012362819
14441
1.40607834676304
14623
1.40604656989789
14700
1.40601479303273
14659
1.40598301616758
14582
1.40595123930243
14559
1.40591946243728
14537
1.40588768557212
14476
1.40585590870697
14435
1.40582413184182
14383
1.40579235497667
14517
1.40576057811151
14436
1.40572880124636
14322
1.40569702438121
14368
1.40566524751605
14377
1.4056334706509
14302
1.40560169378575
14261
1.4055699169206
14316
1.40553814005544
14513
1.40550636319029
14377
1.40547458632514
14347
1.40544280945999
14487
1.40541103259483
14257
1.40537925572968
14228
1.40534747886453
14354
1.40531570199938
14428
1.40528392513422
14393
1.40525214826907
14250
1.40522037140392
14255
1.40518859453877
14258
1.40515681767361
14246
1.40512504080846
14437
1.40509326394331
14296
1.40506148707816
14327
1.405029710213
14438
1.40499793334785
14427
1.4049661564827
14476
1.40493437961755
14392
1.40490260275239
14508
1.40487082588724
14432
1.40483904902209
14430
1.40480727215694
14302
1.40477549529178
14443
1.40474371842663
14543
1.40471194156148
14395
1.40468016469632
14451
1.40464838783117
14265
1.40461661096602
14339
1.40458483410087
14419
1.40455305723571
14350
1.40452128037056
14484
1.40448950350541
14423
1.40445772664026
14626
1.4044259497751
14584
1.40439417290995
14468
1.4043623960448
14745
1.40433061917965
14766
1.40429884231449
14609
1.40426706544934
14758
1.40423528858419
14579
1.40420351171904
14721
1.40417173485388
14739
1.40413995798873
15127
1.40410818112358
14897
1.40407640425843
14997
1.40404462739327
14747
1.40401285052812
14796
1.40398107366297
14890
1.40394929679782
14963
1.40391751993266
15000
1.40388574306751
15097
1.40385396620236
15074
1.40382218933721
15056
1.40379041247205
15327
1.4037586356069
15273
1.40372685874175
15021
1.40369508187659
15198
1.40366330501144
15397
1.40363152814629
15419
1.40359975128114
15419
1.40356797441598
15584
1.40353619755083
15502
1.40350442068568
15624
1.40347264382053
15646
1.40344086695537
15653
1.40340909009022
15528
1.40337731322507
15502
1.40334553635992
15735
1.40331375949476
15608
1.40328198262961
15640
1.40325020576446
15574
1.40321842889931
15736
1.40318665203415
15684
1.403154875169
15729
1.40312309830385
15823
1.4030913214387
15836
1.40305954457354
15933
1.40302776770839
15921
1.40299599084324
15864
1.40296421397809
16057
1.40293243711293
15722
1.40290066024778
16114
1.40286888338263
16217
1.40283710651747
16059
1.40280532965232
16053
1.40277355278717
15953
1.40274177592202
15945
1.40270999905686
16044
1.40267822219171
16142
1.40264644532656
16068
1.40261466846141
16216
1.40258289159625
16340
1.4025511147311
16374
1.40251933786595
16349
1.4024875610008
16182
1.40245578413564
16145
1.40242400727049
16195
1.40239223040534
16141
1.40236045354019
16316
1.40232867667503
16368
1.40229689980988
16088
1.40226512294473
15883
1.40223334607958
15882
1.40220156921442
15837
1.40216979234927
15971
1.40213801548412
15826
1.40210623861897
15760
1.40207446175381
15777
1.40204268488866
15674
1.40201090802351
15524
1.40197913115836
15529
1.4019473542932
15658
1.40191557742805
15531
1.4018838005629
15258
1.40185202369774
15321
1.40182024683259
15291
1.40178846996744
15002
1.40175669310229
15055
1.40172491623713
14945
1.40169313937198
14839
1.40166136250683
14911
1.40162958564168
14871
1.40159780877652
14610
1.40156603191137
14551
1.40153425504622
14479
1.40150247818107
14558
1.40147070131591
14650
1.40143892445076
14358
1.40140714758561
14315
1.40137537072046
14370
1.4013435938553
14256
1.40131181699015
14318
1.401280040125
14142
1.40124826325985
14268
1.40121648639469
14195
1.40118470952954
13928
1.40115293266439
13990
1.40112115579924
13938
1.40108937893408
13701
1.40105760206893
13785
1.40102582520378
14086
1.40099404833863
13815
1.40096227147347
13772
1.40093049460832
13935
1.40089871774317
13873
1.40086694087801
13707
1.40083516401286
13834
1.40080338714771
13734
1.40077161028256
13834
1.4007398334174
13773
1.40070805655225
13592
1.4006762796871
13640
1.40064450282195
13544
1.40061272595679
13500
1.40058094909164
13571
1.40054917222649
13715
1.40051739536134
13645
1.40048561849618
13583
1.40045384163103
13590
1.40042206476588
13500
1.40039028790073
13472
1.40035851103557
13453
1.40032673417042
13522
1.40029495730527
13573
1.40026318044012
13471
1.40023140357496
13526
1.40019962670981
13442
1.40016784984466
13362
1.40013607297951
13484
1.40010429611435
13478
1.4000725192492
13487
1.40004074238405
13418
1.40000896551889
13355
1.39997718865374
13311
1.39994541178859
13331
1.39991363492344
13277
1.39988185805828
13448
1.39985008119313
13417
1.39981830432798
13222
1.39978652746283
13328
1.39975475059767
13322
1.39972297373252
13440
1.39969119686737
13443
1.39965942000222
13125
1.39962764313706
13321
1.39959586627191
13238
1.39956408940676
13236
1.39953231254161
13237
1.39950053567645
13374
1.3994687588113
13134
1.39943698194615
13304
1.399405205081
13308
1.39937342821584
13325
1.39934165135069
13428
1.39930987448554
13342
1.39927809762039
13218
1.39924632075523
13260
1.39921454389008
13328
1.39918276702493
13305
1.39915099015978
13177
1.39911921329462
13096
1.39908743642947
13070
1.39905565956432
13112
1.39902388269916
13295
1.39899210583401
13198
1.39896032896886
12989
1.39892855210371
13011
1.39889677523855
13217
1.3988649983734
13000
1.39883322150825
12938
1.3988014446431
13225
1.39876966777794
13179
1.39873789091279
13189
1.39870611404764
13097
1.39867433718249
12986
1.39864256031733
13311
1.39861078345218
13153
1.39857900658703
13296
1.39854722972188
13178
1.39851545285672
13142
1.39848367599157
13189
1.39845189912642
13229
1.39842012226127
13119
1.39838834539611
13208
1.39835656853096
Ti2p
MX-HT 0p1 20Ap
2023
5
9
20
58
22
2
41
Creation
Created by : XPSUser
Date created : 09/05/2023 20:58
Computer : DESKTOP-U3MGE2F
Location
Location ID : X1
Sample : MX-HT 0p1 20Ap
Description : (55.384,14.627,-0.798)mm
Tilt : 0.00
Charge Neutraliser : On
Filament Current : 0.53A
Filament Bias : 2.02V
Charge Balance : 5.02V
Settings
Excitation
Mode : XPS - monochromatic
Tuning : Spectroscopy
Emission current : 15.00mA
Anode library : Al
ESCA modes
Collimation : Slot
Lens : Hybrid
Resolution : 20.00
Scan
Deflection : (0.000, 0.000)mm
Ti2p : 1016.690-1036.690eV, Sweeps 10
Start : 1016.690eV
End : 1036.690eV
Centre : 1026.690eV
Width : 20.000eV
Step size : 0.100eV
Number Steps : 200
Dwell time : 299ms
Sweep time : 60s
Sweeps : 10
Target quality : 200
Instrument Conditions
Work function : -4.50
Acquisition Conditions
X-ray Power : 225.00W
Quality : 185.44
XPS
10
55.38425
14.626890625
-0.7984765625
Al (mono)
1486.69
225
1E+37
1E+37
1E+37
1E+37
FAT
20
1E+37
-4.5
1E+37
1E+37
1E+37
1E+37
1E+37
Ti2p

-1
Kinetic energy
eV
1016.69
0.1
2
Intensity
d
Transmission
d
pulse counting
0.298507462686567
10
0
1E+37
1E+37
1E+37
0
402
11529
32402
1.34818394035546
1.35812104677082
19120
1.35812104677082
19185
1.35807136123875
18963
1.35802167570667
18836
1.35797199017459
19113
1.35792230464252
19047
1.35787261911044
19025
1.35782293357836
18926
1.35777324804629
18858
1.35772356251421
18868
1.35767387698213
18854
1.35762419145005
19087
1.35757450591798
18797
1.3575248203859
18613
1.35747513485382
18858
1.35742544932175
18737
1.35737576378967
18878
1.35732607825759
18783
1.35727639272552
18746
1.35722670719344
18813
1.35717702166136
18714
1.35712733612929
18762
1.35707765059721
18783
1.35702796506513
18777
1.35697827953306
18726
1.35692859400098
18683
1.3568789084689
18645
1.35682922293683
18820
1.35677953740475
18644
1.35672985187267
18630
1.3566801663406
18631
1.35663048080852
18756
1.35658079527644
18678
1.35653110974437
18718
1.35648142421229
18780
1.35643173868021
18858
1.35638205314813
18862
1.35633236761606
18839
1.35628268208398
18736
1.3562329965519
18904
1.35618331101983
18959
1.35613362548775
19061
1.35608393995567
19305
1.3560342544236
19216
1.35598456889152
19181
1.35593488335944
19454
1.35588519782737
19604
1.35583551229529
19666
1.35578582676321
20016
1.35573614123114
20175
1.35568645569906
20089
1.35563677016698
20470
1.35558708463491
20760
1.35553739910283
20610
1.35548771357075
20555
1.35543802803868
20382
1.3553883425066
20647
1.35533865697452
20647
1.35528897144245
20831
1.35523928591037
20667
1.35518960037829
20607
1.35513991484622
20659
1.35509022931414
20878
1.35504054378206
20651
1.35499085824998
20590
1.35494117271791
20608
1.35489148718583
20744
1.35484180165375
20664
1.35479211612168
20685
1.3547424305896
20694
1.35469274505752
20780
1.35464305952545
21026
1.35459337399337
21125
1.35454368846129
21274
1.35449400292922
21637
1.35444431739714
21864
1.35439463186506
21877
1.35434494633299
22286
1.35429526080091
22313
1.35424557526883
22615
1.35419588973676
22469
1.35414620420468
23044
1.3540965186726
23018
1.35404683314053
23595
1.35399714760845
23515
1.35394746207637
23988
1.3538977765443
24067
1.35384809101222
24418
1.35379840548014
24634
1.35374871994806
24662
1.35369903441599
24995
1.35364934888391
24951
1.35359966335183
24643
1.35354997781976
25086
1.35350029228768
25221
1.3534506067556
25053
1.35340092122353
24837
1.35335123569145
24244
1.35330155015937
23959
1.3532518646273
23336
1.35320217909522
22943
1.35315249356314
22433
1.35310280803107
21919
1.35305312249899
21822
1.35300343696691
21815
1.35295375143484
21918
1.35290406590276
22127
1.35285438037068
22829
1.35280469483861
23164
1.35275500930653
23708
1.35270532377445
24592
1.35265563824238
25366
1.3526059527103
25531
1.35255626717822
25740
1.35250658164615
25831
1.35245689611407
25736
1.35240721058199
25464
1.35235752504991
24871
1.35230783951784
23902
1.35225815398576
23113
1.35220846845368
22268
1.35215878292161
21643
1.35210909738953
21419
1.35205941185745
20893
1.35200972632538
20611
1.3519600407933
20549
1.35191035526122
20506
1.35186066972915
20867
1.35181098419707
21054
1.35176129866499
21180
1.35171161313292
21551
1.35166192760084
22251
1.35161224206876
22603
1.35156255653669
23158
1.35151287100461
23539
1.35146318547253
23984
1.35141349994046
24427
1.35136381440838
25041
1.3513141288763
25741
1.35126444334423
26377
1.35121475781215
26843
1.35116507228007
27501
1.35111538674799
28059
1.35106570121592
28625
1.35101601568384
29394
1.35096633015176
29472
1.35091664461969
30337
1.35086695908761
30711
1.35081727355553
31212
1.35076758802346
31557
1.35071790249138
31977
1.3506682169593
32152
1.35061853142723
32402
1.35056884589515
32154
1.35051916036307
31890
1.350469474831
31434
1.35041978929892
30893
1.35037010376684
30153
1.35032041823477
28802
1.35027073270269
26429
1.35022104717061
23064
1.35017136163854
19633
1.35012167610646
16888
1.35007199057438
15025
1.35002230504231
13894
1.34997261951023
13188
1.34992293397815
12763
1.34987324844607
12574
1.349823562914
12392
1.34977387738192
12416
1.34972419184984
12366
1.34967450631777
12138
1.34962482078569
12067
1.34957513525361
12092
1.34952544972154
12020
1.34947576418946
11880
1.34942607865738
11736
1.34937639312531
11947
1.34932670759323
11853
1.34927702206115
11840
1.34922733652908
11828
1.349177650997
11817
1.34912796546492
11860
1.34907827993285
11815
1.34902859440077
11681
1.34897890886869
11820
1.34892922333662
11704
1.34887953780454
11545
1.34882985227246
11808
1.34878016674039
11609
1.34873048120831
11585
1.34868079567623
11605
1.34863111014416
11570
1.34858142461208
11642
1.34853173908
11634
1.34848205354792
11736
1.34843236801585
11614
1.34838268248377
11660
1.34833299695169
11682
1.34828331141962
11652
1.34823362588754
11529
1.34818394035546
end of experiment
